1461	1522	4
1384	1489	9
1369	1503	13
1408	1462	18
1442	1453	22
1452	1476	27
1481	1512	31
1489	1548	36
1468	1524	40
1448	1502	45
1425	1471	50
1389	1455	54
1346	1519	59
1303	1567	63
1323	1524	68
1343	1482	72
1376	1450	77
1410	1435	81
1426	1507	87
1402	1480	91
1403	1495	96
1396	1469	100
1384	1445	105
1389	1437	109
1398	1427	114
1408	1526	118
1423	1524	123
1448	1496	128
1460	1469	133
1464	1457	137
1446	1571	142
1440	1561	146
1441	1539	151
1492	1537	156
1524	1498	160
1520	1481	165
1549	1464	169
1581	1529	175
1585	1563	179
1562	1521	184
1545	1494	188
1525	1470	193
1506	1459	197
1492	1478	202
1487	1568	206
1493	1525	211
1547	1500	216
1647	1471	221
1721	1516	225
1703	1605	230
1654	1574	235
1633	1605	239
1646	1536	244
1659	1500	248
1697	1487	253
1703	1500	258
1661	1500	263
1582	1535	267
1550	1485	272
1558	1469	276
1565	1459	281
1598	1464	285
1624	1525	290
1640	1562	294
1687	1591	300
1709	1537	304
1683	1499	309
1621	1504	313
1545	1612	318
1561	1620	323
1587	1539	327
1568	1556	332
1536	1503	336
1531	1514	342
1515	1533	346
1509	1494	351
1540	1471	355
1584	1464	360
1584	1458	364
1558	1460	369
1497	1474	373
1435	1491	378
1414	1540	382
1463	1557	388
1513	1547	392
1564	1581	397
1614	1615	402
1666	1590	406
1620	1579	411
1559	1475	415
1478	1455	420
1447	1435	424
1458	1450	430
1441	1439	434
1427	1440	439
1463	1440	443
1490	1446	448
1503	1468	452
1538	1469	457
1557	1462	461
1576	1509	466
1564	1509	471
1552	1521	476
1496	1517	481
1444	1661	485
1416	1643	490
1421	1551	494
1469	1490	499
1500	1457	503
1527	1422	508
1537	1411	513
1566	1412	518
1573	1417	522
1551	1439	527
1499	1450	531
1491	1429	536
1503	1422	540
1530	1424	545
1550	1522	549
1561	1565	555
1587	1491	560
1599	1445	564
1617	1423	569
1628	1426	573
1571	1507	578
1520	1522	582
1543	1451	587
1566	1435	591
1579	1421	596
1563	1431	601
1517	1440	606
1502	1443	610
1493	1431	615
1480	1454	619
1496	1443	624
1534	1431	628
1573	1430	633
1647	1485	638
1649	1558	643
1596	1527	648
1590	1496	652
1614	1447	657
1598	1457	661
1552	1535	666
1504	1569	670
1479	1512	675
1491	1488	679
1518	1460	685
1521	1454	689
1530	1458	694
1533	1481	698
1539	1528	703
1587	1507	707
1629	1506	712
1632	1504	717
1569	1509	721
1525	1522	727
1496	1628	731
1472	1617	736
1505	1574	740
1531	1544	745
1565	1537	749
1579	1557	754
1581	1610	758
1611	1622	763
1636	1590	768
1639	1554	773
1661	1545	777
1631	1561	782
1598	1652	786
1589	1671	791
1609	1589	796
1650	1579	800
1698	1570	805
1719	1576	809
1672	1654	815
1625	1743	819
1648	1618	824
1685	1593	828
1665	1569	833
1573	1588	837
1469	1752	842
1440	1742	846
1485	1612	851
1498	1566	856
1568	1537	861
1642	1566	865
1614	1650	870
1518	1626	874
1476	1565	879
1557	1527	884
1618	1561	888
1615	1641	893
1559	1691	898
1473	1543	903
1404	1505	907
1480	1527	912
1520	1725	916
1510	1598	921
1442	1522	925
1401	1435	930
1408	1409	934
1470	1405	940
1515	1408	944
1508	1455	949
1485	1430	953
1438	1399	958
1456	1385	963
1442	1482	967
1408	1470	972
1395	1548	976
1389	1420	982
1384	1567	986
1349	1570	991
1296	1617	995
1296	1413	1000
1340	1351	1004
1402	1353	1009
1466	1486	1014
1360	1489	1018
1360	1374	1024
1472	1341	1028
1473	1307	1033
1398	1347	1037
1355	1444	1042
1294	1500	1047
1248	1420	1051
1321	1430	1056
1398	1472	1060
1364	1519	1065
1291	1463	1070
1232	1408	1075
1207	1446	1080
1236	1351	1084
1297	1370	1089
1358	1440	1093
1343	1434	1098
1332	1343	1103
1324	1334	1107
1319	1321	1113
1326	1467	1117
1317	1573	1122
1247	1412	1126
1213	1414	1131
1207	1387	1136
1255	1458	1140
1300	1403	1145
1286	1445	1149
1243	1449	1155
1217	1371	1159
1236	1385	1164
1308	1373	1169
1353	1327	1173
1354	1366	1178
1330	1373	1182
1319	1389	1187
1368	1450	1192
1373	1473	1197
1293	1494	1202
1194	1466	1206
1179	1482	1211
1243	1559	1215
1262	1428	1220
1267	1459	1225
1283	1425	1229
1305	1465	1234
1262	1418	1239
1215	1403	1244
1212	1412	1248
1202	1379	1253
1187	1357	1258
1202	1360	1262
1248	1411	1267
1291	1533	1271
1282	1524	1276
1256	1483	1282
1268	1428	1286
1299	1388	1291
1300	1406	1295
1265	1487	1300
1263	1530	1304
1346	1444	1309
1383	1378	1314
1305	1358	1318
1264	1362	1324
1277	1414	1328
1287	1487	1333
1272	1487	1338
1246	1426	1342
1297	1424	1347
1331	1447	1351
1303	1550	1356
1245	1536	1360
1195	1505	1366
1168	1513	1371
1181	1519	1375
1180	1439	1380
1157	1441	1384
1142	1456	1389
1138	1500	1393
1139	1523	1398
1164	1452	1403
1187	1462	1408
1233	1504	1413
1327	1450	1417
1384	1594	1422
1319	1521	1427
1212	1529	1431
1148	1438	1436
1140	1400	1440
1178	1466	1445
1217	1552	1449
1213	1480	1455
1196	1418	1460
1214	1424	1464
1223	1402	1469
1234	1416	1473
1232	1499	1478
1229	1498	1482
1257	1445	1487
1282	1469	1492
1302	1448	1497
1309	1461	1502
1324	1517	1506
1329	1452	1511
1344	1421	1516
1369	1392	1520
1407	1387	1525
1422	1384	1529
1420	1383	1534
1428	1387	1539
1445	1443	1544
1461	1452	1549
1476	1430	1553
1487	1423	1558
1463	1411	1562
1456	1377	1567
1461	1360	1571
1479	1353	1576
1492	1390	1582
1493	1456	1586
1481	1434	1591
1483	1391	1595
1482	1368	1600
1503	1360	1605
1518	1420	1609
1508	1438	1614
1468	1439	1618
1460	1401	1624
1465	1372	1628
1496	1360	1633
1523	1440	1638
1499	1557	1642
1438	1447	1647
1418	1399	1651
1402	1371	1656
1419	1361	1660
1469	1366	1666
1504	1444	1671
1506	1417	1675
1507	1376	1680
1507	1363	1684
1510	1363	1689
1528	1377	1694
1524	1446	1698
1520	1420	1703
1542	1444	1708
1550	1418	1713
1532	1393	1717
1549	1394	1722
1544	1456	1727
1510	1424	1731
1480	1421	1736
1488	1428	1740
1488	1411	1745
1501	1454	1750
1483	1603	1755
1486	1585	1760
1525	1520	1764
1530	1487	1769
1528	1443	1773
1546	1436	1778
1535	1465	1783
1599	1521	1787
1657	1520	1793
1642	1471	1797
1606	1465	1802
1576	1485	1806
1538	1488	1811
1516	1522	1816
1539	1533	1820
1530	1500	1825
1529	1475	1829
1531	1464	1835
1574	1469	1839
1642	1502	1844
1692	1648	1849
1663	1570	1853
1597	1514	1858
1561	1486	1862
1592	1475	1867
1637	1594	1872
1643	1657	1876
1615	1593	1882
1577	1560	1886
1534	1506	1891
1527	1488	1895
1511	1534	1900
1527	1610	1905
1515	1536	1909
1500	1524	1914
1498	1516	1918
1548	1512	1924
1630	1523	1929
1632	1586	1933
1635	1606	1938
1610	1545	1942
1598	1531	1947
1580	1509	1951
1573	1551	1956
1613	1580	1961
1656	1696	1966
1649	1594	1971
1590	1596	1975
1531	1557	1980
1540	1517	1984
1564	1520	1989
1570	1567	1994
1557	1606	1998
1571	1575	2003
1604	1546	2008
1591	1515	2013
1571	1481	2018
1554	1471	2022
1552	1484	2027
1607	1556	2031
1632	1517	2036
1599	1487	2040
1631	1533	2045
1616	1502	2051
1603	1541	2055
1615	1625	2060
1600	1588	2064
1579	1523	2069
1545	1488	2073
1537	1519	2078
1530	1538	2083
1532	1623	2087
1619	1593	2093
1678	1535	2097
1631	1492	2102
1623	1461	2107
1635	1448	2111
1662	1447	2116
1654	1448	2120
1644	1453	2125
1633	1444	2129
1621	1443	2135
1626	1453	2140
1670	1544	2144
1700	1716	2149
1730	1569	2153
1745	1532	2158
1693	1495	2162
1640	1489	2167
1617	1551	2172
1614	1586	2177
1649	1521	2182
1678	1502	2186
1710	1493	2191
1734	1523	2196
1728	1523	2200
1739	1592	2205
1757	1526	2209
1766	1510	2214
1760	1508	2219
1766	1514	2224
1765	1543	2229
1761	1629	2233
1772	1641	2238
1761	1627	2242
1753	1594	2247
1746	1596	2251
1771	1767	2256
1782	1637	2262
1786	1621	2266
1730	1618	2271
1705	1631	2275
1705	1633	2280
1662	1700	2285
1684	1689	2289
1713	1682	2294
1731	1637	2298
1762	1627	2304
1796	1628	2308
1819	1640	2313
1825	1644	2318
1810	1668	2322
1821	1667	2327
1839	1738	2331
1853	1818	2336
1833	1826	2340
1751	1735	2345
1699	1802	2351
1749	1787	2355
1821	1743	2360
1790	1674	2364
1708	1647	2369
1676	1659	2374
1695	1764	2378
1678	1735	2383
1722	1632	2387
1713	1651	2393
1674	1685	2397
1689	1717	2402
1743	1597	2407
1778	1553	2411
1787	1573	2416
1762	1741	2420
1708	1666	2425
1648	1657	2429
1622	1549	2435
1605	1539	2440
1603	1650	2444
1612	1657	2449
1592	1578	2453
1578	1568	2458
1626	1472	2463
1656	1458	2467
1624	1600	2472
1610	1580	2477
1629	1492	2482
1629	1529	2486
1656	1563	2491
1656	1666	2496
1569	1572	2500
1535	1539	2505
1592	1471	2509
1621	1373	2514
1649	1351	2519
1602	1505	2524
1511	1495	2529
1495	1513	2533
1528	1704	2538
1545	1580	2542
1570	1436	2547
1546	1456	2552
1545	1470	2556
1649	1446	2562
1642	1413	2566
1506	1362	2571
1439	1291	2575
1510	1277	2580
1555	1335	2585
1520	1522	2589
1486	1345	2594
1476	1360	2598
1520	1355	2604
1559	1391	2608
1601	1312	2613
1596	1305	2618
1563	1313	2622
1533	1329	2627
1506	1483	2631
1520	1465	2636
1577	1342	2641
1633	1378	2646
1624	1418	2651
1558	1345	2655
1490	1278	2660
1461	1238	2664
1521	1317	2669
1564	1403	2674
1525	1298	2678
1487	1273	2683
1494	1235	2688
1585	1354	2693
1625	1265	2697
1604	1270	2702
1575	1309	2707
1587	1262	2711
1569	1316	2716
1542	1332	2720
1593	1300	2725
1668	1323	2731
1657	1301	2735
1577	1368	2740
1513	1235	2744
1459	1224	2749
1483	1286	2753
1523	1313	2758
1543	1437	2763
1541	1299	2767
1565	1252	2772
1588	1286	2777
1633	1315	2782
1572	1420	2786
1502	1428	2791
1490	1333	2796
1491	1390	2800
1521	1311	2805
1560	1330	2809
1578	1428	2814
1585	1308	2820
1537	1335	2824
1563	1278	2829
1595	1293	2833
1643	1318	2838
1614	1368	2842
1661	1378	2847
1698	1418	2852
1666	1363	2856
1592	1355	2862
1532	1315	2866
1497	1348	2871
1479	1389	2875
1476	1402	2880
1482	1382	2885
1501	1422	2889
1504	1475	2894
1485	1385	2898
1475	1426	2904
1523	1388	2909
1596	1350	2913
1612	1377	2918
1576	1364	2922
1557	1404	2927
1507	1389	2931
1476	1371	2936
1466	1434	2941
1440	1405	2946
1401	1441	2951
1382	1426	2955
1375	1409	2960
1369	1430	2964
1382	1386	2969
1400	1390	2974
1426	1437	2978
1421	1398	2983
1418	1447	2988
1441	1403	2993
1455	1391	2998
1443	1397	3002
1453	1477	3007
1454	1415	3011
1422	1431	3016
1420	1409	3020
1431	1393	3025
1430	1367	3031
1418	1361	3035
1413	1373	3040
1417	1402	3044
1448	1401	3049
1451	1386	3053
1449	1391	3058
1450	1391	3063
1456	1432	3067
1493	1476	3073
1509	1450	3077
1490	1419	3082
1476	1413	3087
1473	1403	3091
1477	1433	3096
1477	1507	3100
1472	1437	3105
1451	1411	3109
1448	1393	3115
1464	1383	3120
1483	1397	3124
1494	1434	3129
1499	1433	3133
1500	1469	3138
1470	1464	3142
1465	1415	3147
1480	1401	3152
1502	1420	3156
1523	1471	3162
1498	1440	3166
1453	1391	3171
1450	1372	3176
1461	1365	3180
1465	1400	3185
1454	1444	3189
1433	1423	3194
1424	1399	3198
1427	1377	3204
1436	1381	3209
1490	1402	3213
1497	1445	3218
1476	1446	3222
1436	1414	3227
1444	1396	3232
1493	1395	3236
1576	1432	3241
1587	1472	3246
1508	1472	3251
1438	1420	3255
1425	1388	3260
1431	1373	3265
1405	1388	3269
1349	1434	3274
1306	1446	3278
1329	1454	3283
1400	1425	3288
1474	1410	3293
1475	1409	3298
1439	1421	3302
1458	1453	3307
1524	1478	3311
1558	1480	3316
1533	1429	3321
1512	1400	3325
1514	1409	3331
1495	1455	3335
1471	1428	3340
1495	1433	3344
1521	1411	3349
1535	1407	3354
1520	1407	3358
1498	1470	3363
1498	1492	3367
1492	1457	3373
1441	1431	3377
1412	1413	3382
1445	1411	3387
1487	1453	3391
1524	1528	3396
1552	1478	3400
1523	1448	3405
1428	1424	3410
1391	1425	3415
1433	1426	3420
1494	1519	3424
1474	1491	3429
1410	1472	3433
1363	1429	3438
1375	1420	3443
1416	1418	3447
1415	1445	3452
1450	1545	3457
1469	1553	3462
1479	1470	3466
1466	1441	3471
1423	1428	3476
1377	1420	3480
1421	1444	3485
1469	1499	3489
1448	1482	3494
1423	1446	3500
1400	1439	3504
1385	1432	3509
1387	1477	3513
1437	1482	3518
1474	1516	3522
1510	1479	3527
1464	1461	3532
1440	1443	3536
1413	1447	3542
1391	1490	3546
1450	1469	3551
1513	1457	3556
1501	1441	3560
1465	1436	3565
1445	1439	3569
1488	1485	3574
1528	1600	3578
1523	1561	3584
1516	1486	3589
1469	1467	3593
1439	1467	3598
1435	1504	3602
1432	1574	3607
1472	1504	3611
1518	1474	3616
1532	1463	3621
1522	1463	3625
1592	1486	3631
1598	1501	3635
1581	1501	3640
1521	1499	3645
1484	1505	3649
1466	1523	3654
1461	1528	3658
1438	1545	3663
1387	1588	3667
1420	1610	3673
1484	1602	3678
1517	1571	3682
1528	1588	3687
1579	1695	3691
1609	1696	3696
1592	1616	3700
1573	1585	3705
1553	1582	3710
1514	1587	3715
1485	1582	3720
1527	1586	3724
1593	1573	3729
1564	1573	3734
1505	1584	3738
1480	1662	3743
1478	1700	3747
1560	1648	3752
1659	1590	3757
1697	1656	3762
1653	1780	3767
1543	1692	3771
1508	1680	3776
1523	1607	3780
1528	1571	3785
1592	1573	3789
1600	1641	3794
1508	1737	3800
1427	1629	3804
1426	1558	3809
1516	1568	3813
1588	1515	3818
1588	1485	3823
1585	1477	3827
1562	1690	3832
1538	1682	3836
1518	1623	3842
1527	1755	3846
1503	1645	3851
1532	1524	3856
1526	1404	3860
1492	1373	3865
1488	1512	3869
1436	1646	3874
1401	1459	3879
1424	1474	3884
1499	1493	3889
1491	1638	3893
1468	1576	3898
1524	1478	3902
1493	1407	3907
1432	1386	3912
1427	1391	3916
1524	1357	3921
1536	1579	3926
1428	1606	3931
1381	1497	3935
1446	1320	3940
1515	1282	3945
1560	1242	3949
1542	1347	3954
1448	1482	3958
1407	1364	3963
1421	1262	3969
1417	1238	3973
1455	1296	3978
1473	1438	3982
1431	1356	3987
1389	1291	3991
1321	1287	3996
1267	1345	4001
1195	1218	4005
1212	1153	4011
1242	1164	4015
1297	1202	4020
1315	1302	4024
1265	1385	4029
1224	1227	4034
1205	1174	4038
1196	1173	4043
1187	1252	4047
1179	1267	4052
1252	1330	4058
1306	1307	4062
1262	1316	4067
1182	1409	4071
1225	1348	4076
1261	1284	4080
1318	1234	4085
1400	1197	4090
1403	1214	4094
1410	1332	4100
1416	1222	4104
1468	1226	4109
1460	1194	4113
1433	1238	4118
1429	1251	4123
1409	1243	4127
1411	1309	4132
1469	1284	4136
1442	1232	4142
1382	1226	4147
1383	1365	4151
1399	1378	4156
1401	1406	4160
1369	1381	4165
1354	1289	4169
1454	1317	4174
1519	1440	4179
1492	1489	4184
1455	1397	4189
1444	1279	4193
1399	1245	4198
1402	1253	4203
1461	1268	4207
1458	1314	4212
1464	1356	4216
1477	1412	4221
1434	1422	4226
1396	1397	4231
1385	1417	4236
1464	1393	4240
1603	1441	4245
1595	1427	4249
1441	1428	4254
1386	1570	4258
1497	1451	4263
1565	1463	4269
1486	1482	4273
1409	1478	4278
1386	1439	4282
1380	1473	4287
1379	1446	4292
1379	1436	4296
1386	1504	4301
1430	1485	4305
1480	1511	4311
1560	1466	4315
1629	1558	4320
1558	1501	4325
1468	1460	4329
1484	1461	4334
1613	1453	4338
1625	1528	4343
1509	1463	4347
1424	1498	4353
1415	1450	4358
1424	1517	4362
1435	1495	4367
1431	1492	4371
1437	1497	4376
1437	1479	4381
1455	1466	4385
1493	1494	4390
1503	1451	4395
1508	1480	4400
1525	1461	4404
1493	1462	4409
1460	1435	4414
1473	1426	4418
1469	1428	4423
1439	1500	4427
1409	1459	4432
1408	1426	4438
1417	1408	4442
1422	1398	4447
1429	1416	4451
1451	1427	4456
1456	1448	4460
1437	1441	4465
1417	1435	4470
1416	1465	4474
1413	1508	4480
1435	1507	4484
1445	1492	4489
1423	1494	4493
1415	1453	4498
1410	1433	4503
1434	1479	4507
1441	1461	4512
1423	1433	4516
1405	1426	4521
1392	1425	4527
1388	1432	4531
1385	1449	4536
1380	1512	4540
1390	1525	4545
1407	1476	4549
1420	1451	4554
1433	1447	4559
1451	1451	4563
1457	1474	4569
1430	1488	4573
1396	1464	4578
1381	1441	4582
1373	1428	4587
1372	1481	4592
1371	1470	4596
1369	1548	4601
1341	1504	4605
1351	1471	4611
1367	1449	4616
1404	1444	4620
1443	1476	4625
1451	1520	4629
1400	1527	4634
1382	1486	4638
1348	1473	4643
1334	1448	4648
1319	1476	4653
1300	1511	4658
1321	1595	4662
1331	1523	4667
1360	1486	4672
1342	1466	4676
1316	1464	4681
1281	1472	4685
1250	1551	4690
1247	1517	4695
1280	1521	4700
1306	1498	4705
1375	1498	4709
1419	1534	4714
1426	1600	4718
1464	1586	4723
1434	1555	4727
1408	1530	4732
1351	1534	4738
1310	1580	4742
1306	1676	4747
1303	1653	4751
1292	1582	4756
1303	1541	4761
1329	1518	4765
1343	1505	4770
1330	1529	4774
1338	1575	4780
1346	1558	4784
1345	1539	4789
1330	1523	4794
1324	1519	4798
1351	1602	4803
1373	1615	4807
1426	1582	4812
1458	1544	4816
1423	1526	4822
1355	1531	4827
1320	1626	4831
1289	1615	4836
1272	1584	4840
1326	1547	4845
1368	1535	4850
1365	1533	4854
1365	1545	4859
1380	1548	4864
1424	1561	4869
1445	1566	4873
1431	1565	4878
1387	1552	4883
1349	1565	4887
1335	1705	4892
1344	1660	4896
1334	1603	4901
1287	1564	4905
1312	1542	4911
1386	1520	4916
1397	1524	4920
1388	1583	4925
1372	1685	4929
1324	1600	4934
1283	1564	4939
1288	1537	4943
1295	1526	4948
1306	1528	4953
1362	1555	4958
1404	1549	4962
1411	1547	4967
1359	1539	4972
1371	1541	4976
1406	1560	4981
1402	1696	4985
1370	1694	4990
1368	1608	4995
1393	1583	5000
1404	1576	5005
1373	1575	5009
1350	1587	5014
1410	1688	5018
1411	1697	5023
1402	1614	5028
1375	1593	5032
1354	1580	5038
1365	1589	5042
1344	1665	5047
1318	1655	5051
1418	1628	5056
1508	1621	5061
1539	1621	5065
1490	1633	5070
1417	1665	5074
1381	1667	5080
1371	1672	5085
1413	1648	5089
1450	1638	5094
1473	1639	5098
1457	1684	5103
1410	1695	5107
1377	1684	5112
1419	1661	5117
1484	1656	5122
1501	1702	5127
1442	1870	5131
1370	1881	5136
1396	1773	5140
1441	1693	5145
1482	1634	5150
1498	1612	5154
1486	1616	5159
1451	1631	5164
1404	1687	5169
1387	1734	5174
1378	1696	5178
1371	1690	5183
1386	1677	5187
1405	1799	5192
1440	1768	5196
1441	1734	5201
1438	1619	5207
1413	1560	5211
1428	1523	5216
1517	1522	5220
1528	1575	5225
1461	1746	5229
1445	1704	5234
1377	1573	5239
1347	1492	5243
1422	1467	5249
1460	1573	5253
1410	1819	5258
1375	1601	5263
1358	1513	5267
1324	1457	5272
1341	1584	5276
1294	1589	5281
1172	1487	5285
1168	1415	5291
1225	1337	5296
1290	1325	5300
1318	1375	5305
1324	1395	5309
1312	1418	5314
1321	1414	5318
1347	1538	5323
1386	1346	5328
1384	1521	5332
1341	1631	5338
1332	1567	5342
1316	1529	5347
1261	1499	5352
1240	1318	5356
1263	1306	5361
1280	1561	5365
1260	1612	5370
1214	1473	5374
1196	1420	5380
1292	1431	5385
1306	1288	5389
1233	1234	5394
1287	1215	5398
1349	1381	5403
1355	1338	5408
1285	1316	5412
1264	1282	5417
1328	1319	5422
1404	1346	5427
1422	1364	5431
1362	1354	5436
1297	1428	5441
1242	1369	5445
1220	1355	5450
1260	1236	5454
1320	1218	5459
1373	1279	5464
1387	1381	5469
1333	1458	5474
1245	1263	5478
1269	1285	5483
1302	1271	5487
1361	1240	5492
1465	1394	5497
1486	1429	5501
1434	1377	5507
1368	1270	5511
1423	1227	5516
1485	1291	5520
1437	1560	5525
1375	1303	5530
1340	1333	5534
1295	1265	5539
1323	1256	5543
1399	1317	5549
1495	1310	5553
1558	1280	5558
1478	1342	5563
1469	1389	5567
1525	1393	5572
1467	1377	5576
1382	1419	5581
1430	1397	5586
1478	1432	5591
1448	1333	5596
1458	1412	5600
1433	1367	5605
1411	1321	5609
1466	1427	5614
1487	1372	5619
1466	1347	5623
1471	1332	5628
1502	1370	5633
1527	1389	5638
1480	1374	5643
1447	1422	5647
1454	1476	5652
1514	1464	5656
1505	1523	5661
1459	1366	5665
1457	1394	5670
1474	1441	5676
1478	1458	5680
1475	1463	5685
1488	1428	5689
1473	1430	5694
1503	1403	5698
1578	1396	5703
1625	1473	5708
1747	1581	5712
1682	1579	5718
1524	1488	5722
1444	1406	5727
1469	1437	5732
1511	1499	5736
1492	1421	5741
1467	1416	5745
1480	1458	5750
1526	1448	5754
1556	1537	5760
1565	1511	5765
1584	1461	5769
1645	1471	5774
1662	1415	5778
1654	1487	5783
1688	1474	5787
1699	1451	5792
1657	1409	5797
1633	1390	5801
1652	1388	5807
1671	1407	5811
1708	1389	5816
1739	1385	5821
1750	1384	5825
1752	1392	5830
1745	1581	5834
1766	1470	5839
1758	1425	5843
1732	1395	5849
1738	1388	5854
1781	1398	5858
1810	1444	5863
1771	1398	5867
1713	1386	5872
1684	1380	5876
1701	1377	5881
1704	1386	5886
1698	1445	5891
1699	1412	5896
1694	1400	5900
1696	1386	5905
1700	1385	5910
1702	1428	5914
1701	1456	5919
1716	1438	5923
1729	1451	5928
1716	1408	5933
1690	1399	5938
1676	1392	5943
1672	1396	5947
1678	1413	5952
1668	1408	5956
1644	1412	5961
1642	1418	5966
1635	1426	5970
1640	1510	5976
1640	1452	5980
1664	1419	5985
1667	1420	5989
1663	1393	5994
1715	1405	5999
1723	1455	6003
1641	1435	6008
1548	1425	6012
1558	1423	6018
1577	1419	6022
1589	1432	6027
1599	1527	6032
1577	1518	6036
1531	1503	6041
1533	1465	6045
1566	1437	6050
1580	1436	6055
1603	1476	6060
1656	1525	6065
1660	1481	6069
1628	1463	6074
1600	1441	6078
1586	1438	6083
1606	1526	6088
1600	1578	6092
1574	1518	6097
1562	1496	6102
1568	1464	6107
1553	1455	6111
1513	1462	6116
1481	1529	6121
1518	1548	6125
1549	1517	6130
1542	1486	6134
1530	1473	6139
1545	1478	6145
1535	1524	6149
1525	1532	6154
1516	1510	6158
1538	1500	6163
1542	1488	6167
1534	1483	6172
1517	1500	6177
1531	1592	6181
1596	1588	6187
1595	1548	6191
1592	1518	6196
1536	1502	6201
1510	1511	6205
1490	1566	6210
1526	1610	6214
1514	1541	6219
1501	1521	6223
1521	1505	6228
1543	1499	6234
1530	1498	6238
1541	1555	6243
1558	1563	6247
1556	1573	6252
1478	1570	6256
1409	1522	6261
1415	1515	6266
1453	1561	6270
1475	1658	6276
1473	1588	6280
1505	1559	6285
1535	1535	6290
1555	1532	6294
1598	1529	6299
1611	1546	6303
1589	1569	6308
1520	1575	6312
1488	1554	6318
1453	1539	6323
1455	1532	6327
1472	1574	6332
1529	1698	6336
1535	1665	6341
1531	1576	6345
1489	1549	6350
1476	1531	6355
1562	1538	6360
1626	1631	6365
1605	1675	6369
1556	1587	6374
1493	1570	6379
1488	1569	6383
1496	1570	6388
1481	1570	6392
1443	1592	6397
1481	1592	6402
1509	1594	6407
1486	1608	6412
1470	1617	6416
1489	1625	6421
1540	1648	6425
1580	1743	6430
1555	1717	6434
1550	1669	6439
1542	1655	6445
1557	1672	6449
1615	1813	6454
1603	1942	6458
1533	1743	6463
1488	1697	6468
1464	1671	6472
1468	1666	6477
1478	1677	6481
1473	1693	6487
1491	1713	6491
1536	1698	6496
1573	1705	6501
1565	1722	6505
1507	1795	6510
1462	1790	6514
1483	1751	6519
1558	1735	6524
1633	1813	6529
1560	1874	6534
1479	1868	6538
1458	1746	6543
1560	1716	6547
1615	1707	6552
1560	1784	6557
1440	1788	6561
1434	1736	6566
1445	1696	6571
1510	1684	6576
1585	1684	6580
1495	1772	6585
1437	1859	6590
1417	1831	6594
1427	1847	6599
1494	1779	6603
1506	1733	6608
1501	1644	6614
1493	1601	6618
1447	1579	6623
1413	1632	6627
1343	1750	6632
1303	1835	6636
1296	1675	6641
1281	1580	6646
1246	1510	6650
1290	1480	6656
1388	1537	6660
1377	1877	6665
1284	1712	6669
1231	1571	6674
1239	1624	6679
1341	1479	6683
1366	1443	6688
1340	1493	6692
1322	1586	6697
1283	1733	6703
1280	1752	6707
1399	1764	6712
1402	1689	6716
1273	1428	6721
1253	1364	6725
1267	1669	6730
1299	1656	6735
1311	1694	6739
1273	1689	6745
1242	1591	6749
1258	1378	6754
1290	1378	6759
1321	1607	6763
1325	1498	6768
1305	1352	6772
1285	1406	6777
1286	1472	6781
1317	1284	6787
1378	1241	6792
1428	1302	6796
1473	1370	6801
1463	1447	6805
1347	1444	6810
1280	1456	6814
1274	1358	6819
1317	1426	6824
1366	1366	6829
1332	1383	6834
1325	1577	6838
1376	1382	6843
1394	1478	6848
1383	1451	6852
1334	1355	6857
1352	1288	6861
1392	1328	6866
1331	1438	6871
1311	1459	6876
1303	1246	6881
1314	1236	6885
1396	1419	6890
1442	1299	6894
1416	1264	6899
1367	1371	6903
1361	1208	6908
1359	1255	6914
1346	1240	6918
1529	1323	6923
1552	1296	6927
1447	1342	6932
1343	1408	6937
1357	1320	6941
1406	1386	6946
1460	1251	6950
1464	1229	6956
1449	1372	6960
1433	1449	6965
1422	1311	6970
1402	1318	6974
1438	1311	6979
1445	1277	6983
1468	1419	6988
1539	1472	6992
1498	1396	6998
1417	1345	7003
1465	1414	7007
1468	1280	7012
1448	1269	7016
1465	1325	7021
1460	1423	7026
1452	1456	7030
1431	1409	7035
1487	1339	7040
1594	1378	7045
1611	1352	7049
1538	1336	7054
1493	1461	7059
1481	1390	7063
1572	1451	7068
1601	1449	7072
1521	1387	7077
1448	1386	7081
1433	1356	7087
1464	1412	7092
1534	1411	7096
1578	1465	7101
1557	1465	7105
1535	1430	7110
1541	1411	7115
1551	1429	7119
1583	1473	7124
1676	1422	7129
1760	1428	7134
1704	1400	7138
1577	1378	7143
1539	1418	7148
1587	1451	7152
1659	1461	7157
1649	1406	7161
1621	1415	7166
1622	1463	7172
1634	1415	7176
1684	1515	7181
1706	1407	7185
1711	1378	7190
1744	1374	7194
1747	1377	7199
1726	1402	7204
1757	1411	7208
1770	1406	7214
1758	1447	7218
1761	1388	7223
1735	1351	7227
1703	1352	7232
1697	1358	7237
1720	1458	7241
1730	1387	7246
1723	1361	7250
1715	1350	7256
1708	1350	7261
1709	1362	7265
1714	1430	7270
1729	1396	7274
1745	1379	7279
1753	1373	7283
1767	1375	7288
1802	1395	7293
1843	1480	7298
1829	1437	7303
1788	1422	7307
1760	1397	7312
1753	1377	7316
1767	1365	7321
1765	1371	7326
1769	1415	7330
1761	1422	7335
1745	1427	7340
1706	1411	7345
1692	1413	7350
1682	1429	7354
1668	1451	7359
1670	1508	7363
1669	1446	7368
1646	1416	7372
1663	1415	7377
1702	1428	7383
1750	1486	7387
1695	1494	7392
1623	1470	7396
1569	1449	7401
1542	1453	7406
1574	1459	7410
1620	1473	7415
1645	1562	7419
1600	1517	7425
1554	1484	7429
1534	1465	7434
1555	1452	7439
1589	1468	7443
1628	1540	7448
1670	1546	7452
1647	1512	7457
1558	1474	7461
1499	1470	7467
1499	1480	7472
1531	1529	7476
1531	1556	7481
1531	1514	7485
1545	1498	7490
1539	1482	7495
1502	1483	7499
1509	1515	7504
1511	1579	7508
1525	1604	7514
1491	1533	7518
1446	1512	7523
1431	1493	7528
1451	1489	7532
1464	1531	7537
1496	1575	7541
1583	1579	7546
1571	1551	7552
1486	1522	7556
1447	1511	7561
1439	1536	7565
1428	1619	7570
1521	1610	7574
1587	1626	7579
1510	1577	7584
1425	1549	7588
1402	1538	7593
1484	1541	7598
1578	1594	7603
1517	1602	7607
1461	1598	7612
1437	1578	7617
1429	1556	7621
1432	1573	7626
1418	1660	7630
1463	1612	7635
1494	1618	7641
1414	1620	7645
1455	1566	7650
1536	1562	7654
1558	1603	7659
1511	1674	7663
1449	1709	7668
1472	1608	7673
1493	1566	7677
1494	1540	7683
1564	1527	7687
1632	1530	7692
1633	1552	7697
1576	1540	7701
1492	1530	7706
1452	1528	7710
1439	1543	7715
1426	1663	7719
1387	1680	7725
1457	1601	7730
1558	1567	7734
1566	1546	7739
1527	1544	7743
1512	1572	7748
1534	1633	7752
1576	1598	7757
1555	1563	7762
1515	1552	7767
1480	1557	7772
1499	1564	7776
1586	1614	7781
1593	1641	7786
1574	1614	7790
1572	1584	7795
1566	1564	7799
1566	1580	7804
1538	1661	7809
1496	1696	7814
1526	1627	7819
1583	1605	7823
1577	1584	7828
1648	1579	7832
1703	1595	7837
1671	1724	7841
1556	1693	7846
1491	1681	7852
1493	1633	7856
1532	1616	7861
1633	1601	7865
1638	1617	7870
1571	1718	7875
1552	1762	7879
1534	1753	7884
1526	1755	7888
1565	1681	7894
1624	1686	7898
1624	1817	7903
1690	1876	7908
1722	1868	7912
1644	1693	7917
1514	1616	7921
1440	1595	7926
1520	1593	7930
1566	1729	7936
1496	1938	7941
1359	1716	7945
1348	1761	7950
1469	1922	7954
1528	1855	7959
1488	1707	7964
1516	1657	7968
1537	1736	7973
1483	1743	7977
1476	1695	7983
1458	1553	7987
1420	1516	7992
1389	1482	7997
1436	1610	8001
1420	1612	8006
1374	1540	8010
1306	1470	8015
1364	1493	8019
1454	1545	8025
1414	1535	8030
1336	1730	8034
1313	1734	8039
1324	1690	8043
1339	1684	8048
1334	1630	8053
1375	1455	8057
1404	1540	8062
1329	1483	8067
1280	1369	8072
1324	1420	8076
1396	1488	8081
1404	1645	8086
1374	1383	8090
1370	1397	8095
1292	1448	8099
1324	1236	8104
1452	1325	8109
1417	1431	8114
1295	1497	8119
1201	1541	8123
1189	1455	8128
1248	1245	8132
1373	1338	8137
1371	1323	8142
1301	1341	8146
1297	1401	8152
1361	1286	8156
1395	1340	8161
1375	1187	8165
1395	1097	8170
1405	1157	8175
1397	1147	8179
1357	1192	8184
1256	1172	8188
1190	1139	8194
1194	1130	8198
1256	1096	8203
1323	1150	8208
1297	1291	8212
1333	1218	8217
1420	1282	8221
1361	1278	8226
1293	1163	8231
1279	1194	8236
1301	1127	8241
1334	1207	8245
1351	1218	8250
1448	1155	8254
1527	1181	8259
1408	1175	8264
1282	1336	8268
1270	1302	8273
1309	1236	8278
1404	1131	8283
1470	1175	8287
1462	1274	8292
1415	1212	8297
1505	1277	8301
1531	1168	8306
1411	1171	8310
1386	1294	8315
1380	1264	8321
1313	1230	8325
1299	1195	8330
1379	1149	8334
1460	1145	8339
1470	1189	8343
1474	1345	8348
1447	1335	8353
1374	1276	8357
1375	1310	8363
1464	1280	8367
1491	1301	8372
1449	1333	8377
1432	1363	8381
1413	1262	8386
1371	1408	8390
1401	1317	8395
1396	1309	8399
1329	1366	8404
1389	1225	8410
1533	1195	8414
1545	1197	8419
1460	1232	8423
1393	1255	8428
1426	1344	8432
1479	1424	8437
1488	1349	8442
1477	1344	8446
1480	1361	8452
1450	1383	8456
1439	1366	8461
1486	1586	8466
1630	1400	8470
1582	1352	8475
1506	1400	8479
1480	1399	8484
1473	1369	8488
1486	1329	8494
1661	1333	8499
1714	1343	8503
1584	1321	8508
1481	1348	8512
1474	1344	8517
1524	1355	8521
1535	1393	8526
1533	1439	8531
1505	1390	8536
1487	1389	8541
1501	1415	8545
1538	1347	8550
1550	1332	8555
1560	1331	8559
1576	1339	8564
1555	1335	8568
1579	1337	8573
1588	1330	8578
1559	1325	8583
1520	1337	8588
1517	1342	8592
1522	1381	8597
1512	1402	8601
1506	1376	8606
1515	1362	8611
1506	1365	8615
1495	1427	8621
1534	1539	8625
1547	1456	8630
1514	1368	8634
1480	1323	8639
1466	1321	8644
1462	1333	8648
1469	1358	8653
1502	1404	8657
1522	1395	8663
1495	1377	8667
1467	1370	8672
1450	1401	8677
1436	1464	8681
1440	1430	8686
1459	1417	8690
1465	1408	8695
1486	1412	8700
1487	1426	8705
1494	1453	8710
1525	1477	8714
1515	1439	8719
1474	1438	8723
1412	1413	8728
1382	1413	8733
1374	1471	8737
1377	1487	8742
1388	1486	8747
1394	1469	8752
1385	1447	8756
1391	1444	8761
1414	1478	8766
1425	1595	8770
1447	1521	8775
1490	1522	8779
1500	1484	8784
1485	1484	8790
1449	1486	8794
1458	1566	8799
1527	1599	8803
1495	1534	8808
1441	1493	8812
1380	1452	8817
1357	1441	8822
1331	1446	8826
1313	1495	8832
1305	1511	8836
1309	1507	8841
1326	1488	8846
1342	1488	8850
1328	1496	8855
1346	1571	8859
1333	1644	8864
1316	1577	8868
1360	1531	8873
1447	1506	8879
1458	1501	8883
1417	1557	8888
1341	1568	8892
1330	1648	8897
1351	1573	8901
1302	1515	8906
1262	1499	8911
1237	1492	8915
1250	1497	8921
1297	1519	8925
1344	1553	8930
1338	1558	8935
1284	1540	8939
1246	1532	8944
1260	1590	8948
1364	1656	8953
1458	1660	8957
1508	1564	8963
1452	1546	8968
1397	1548	8972
1402	1603	8977
1379	1669	8981
1377	1624	8986
1424	1625	8990
1391	1539	8995
1305	1524	9000
1291	1520	9005
1296	1520	9010
1364	1573	9014
1376	1612	9019
1425	1566	9024
1435	1547	9028
1447	1546	9033
1454	1552	9037
1479	1582	9042
1502	1674	9047
1506	1622	9052
1492	1580	9057
1439	1570	9061
1422	1610	9066
1450	1645	9070
1446	1714	9075
1422	1640	9079
1379	1632	9084
1304	1613	9090
1318	1605	9094
1394	1618	9099
1519	1655	9103
1518	1602	9108
1489	1603	9113
1473	1605	9117
1429	1650	9122
1443	1700	9126
1464	1683	9132
1465	1661	9136
1497	1604	9141
1526	1586	9146
1509	1580	9150
1480	1590	9155
1441	1604	9159
1450	1617	9164
1477	1629	9169
1480	1639	9174
1503	1650	9179
1514	1667	9183
1541	1723	9188
1561	1816	9192
1573	1750	9197
1540	1731	9202
1527	1727	9206
1597	1675	9211
1587	1659	9216
1520	1679	9221
1468	1839	9225
1435	1916	9230
1464	1754	9235
1466	1751	9239
1430	1746	9244
1472	1865	9248
1460	1782	9253
1523	1810	9259
1601	1771	9263
1571	1668	9268
1481	1640	9272
1501	1641	9277
1575	1634	9281
1686	1780	9286
1645	2018	9291
1551	1822	9295
1512	1756	9300
1551	1696	9305
1578	1709	9310
1534	1835	9315
1466	1776	9319
1319	1747	9324
1320	1742	9328
1399	1628	9333
1422	1761	9337
1456	1595	9342
1511	1537	9348
1429	1490	9352
1343	1662	9357
1317	1853	9361
1343	1823	9366
1380	1860	9370
1343	1693	9375
1336	1701	9380
1361	1592	9384
1397	1578	9390
1288	1733	9394
1219	1719	9399
1223	1655	9404
1221	1582	9408
1223	1673	9413
1264	1501	9417
1285	1508	9422
1315	1730	9426
1305	1617	9432
1296	1514	9437
1389	1479	9441
1420	1653	9446
1283	1611	9450
1284	1633	9455
1320	1578	9459
1329	1485	9464
1268	1453	9469
1239	1559	9474
1301	1501	9479
1414	1359	9483
1417	1418	9488
1358	1523	9493
1267	1326	9497
1270	1338	9502
1360	1356	9506
1385	1396	9511
1398	1275	9516
1467	1349	9521
1455	1532	9526
1379	1281	9530
1343	1371	9535
1277	1509	9539
1203	1390	9544
1234	1424	9548
1393	1288	9553
1448	1359	9559
1402	1558	9563
1302	1429	9568
1293	1202	9572
1308	1138	9577
1266	1164	9582
1177	1289	9586
1190	1557	9591
1239	1324	9595
1236	1274	9601
1212	1323	9605
1332	1390	9610
1386	1434	9615
1369	1238	9619
1370	1271	9624
1365	1295	9628
1327	1378	9633
1274	1415	9637
1299	1414	9643
1327	1386	9648
1349	1344	9652
1364	1448	9657
1447	1306	9661
1501	1344	9666
1437	1362	9671
1371	1370	9675
1326	1397	9680
1403	1348	9684
1472	1312	9690
1479	1432	9694
1460	1399	9699
1444	1351	9704
1452	1494	9708
1521	1427	9713
1532	1410	9717
1456	1430	9722
1428	1512	9728
1464	1460	9732
1449	1497	9737
1427	1596	9741
1399	1362	9746
1412	1318	9750
1497	1391	9755
1557	1340	9760
1551	1362	9764
1488	1461	9769
1445	1584	9774
1470	1469	9779
1510	1442	9783
1519	1430	9788
1561	1482	9793
1610	1508	9797
1677	1611	9802
1761	1518	9806
1699	1483	9811
1585	1431	9817
1563	1425	9821
1653	1434	9826
1646	1492	9830
1614	1526	9835
1585	1535	9839
1539	1546	9844
1521	1525	9849
1520	1525	9853
1543	1549	9859
1586	1533	9863
1610	1500	9868
1594	1506	9872
1584	1496	9877
1601	1449	9882
1632	1427	9886
1764	1519	9891
1823	1460	9895
1747	1421	9901
1649	1400	9906
1605	1439	9910
1616	1431	9915
1680	1456	9919
1710	1433	9924
1685	1437	9928
1681	1421	9933
1677	1438	9938
1666	1419	9943
1660	1409	9948
1653	1408	9952
1661	1429	9957
1668	1429	9961
1675	1434	9966
1685	1455	9971
1779	1555	9975
1815	1488	9980
1754	1434	9985
1670	1451	9990
1624	1413	9995
1621	1394	9999
1621	1390	10004
1621	1418	10008
1627	1435	10013
1638	1423	10018
1645	1413	10022
1634	1416	10028
1635	1481	10032
1672	1544	10037
1695	1518	10042
1673	1446	10046
1636	1410	10051
1594	1394	10056
1590	1410	10060
1619	1562	10065
1623	1504	10071
1563	1438	10075
1517	1417	10080
1507	1422	10084
1515	1434	10089
1575	1480	10094
1603	1541	10098
1572	1512	10103
1516	1478	10108
1478	1469	10113
1473	1475	10118
1498	1506	10122
1559	1557	10127
1638	1527	10132
1651	1529	10136
1597	1485	10141
1530	1473	10146
1485	1466	10150
1452	1565	10156
1397	1579	10160
1380	1505	10165
1410	1465	10170
1411	1439	10174
1451	1432	10179
1492	1449	10184
1530	1515	10188
1660	1551	10193
1704	1531	10199
1627	1509	10203
1504	1454	10208
1462	1452	10212
1463	1496	10217
1488	1608	10222
1462	1523	10226
1445	1503	10231
1462	1458	10236
1461	1447	10241
1448	1443	10246
1440	1485	10250
1483	1512	10255
1542	1508	10260
1572	1467	10264
1504	1447	10269
1460	1448	10274
1461	1486	10278
1508	1512	10284
1603	1588	10288
1632	1573	10293
1557	1532	10298
1482	1488	10302
1449	1499	10307
1512	1558	10312
1580	1624	10316
1564	1584	10321
1508	1519	10327
1457	1480	10331
1432	1470	10336
1401	1519	10340
1426	1478	10345
1468	1517	10350
1534	1539	10354
1547	1496	10359
1548	1470	10364
1545	1462	10369
1562	1470	10374
1625	1498	10378
1645	1552	10383
1661	1531	10388
1594	1511	10392
1536	1534	10397
1469	1633	10402
1472	1647	10406
1532	1693	10412
1544	1551	10417
1479	1472	10421
1409	1468	10426
1394	1445	10430
1433	1448	10435
1460	1453	10440
1508	1470	10444
1509	1514	10449
1496	1496	10455
1537	1494	10459
1611	1517	10464
1697	1611	10468
1710	1605	10473
1650	1575	10478
1569	1521	10482
1556	1511	10487
1542	1507	10492
1494	1542	10497
1427	1675	10502
1402	1661	10506
1482	1558	10511
1533	1512	10516
1545	1500	10520
1575	1514	10525
1562	1533	10530
1508	1568	10534
1492	1676	10540
1569	1620	10544
1623	1597	10549
1594	1567	10554
1484	1606	10558
1461	1628	10563
1492	1688	10568
1538	1625	10572
1583	1536	10577
1603	1526	10583
1563	1525	10587
1522	1579	10592
1562	1606	10596
1624	1682	10601
1558	1723	10606
1483	1663	10610
1464	1544	10615
1549	1515	10620
1621	1510	10625
1689	1561	10630
1647	1773	10634
1539	1731	10639
1469	1616	10644
1532	1617	10648
1577	1644	10653
1535	1570	10658
1507	1473	10662
1584	1478	10668
1643	1655	10672
1601	1858	10677
1532	1685	10682
1493	1771	10686
1454	1663	10691
1424	1551	10696
1372	1489	10700
1471	1461	10705
1626	1807	10710
1486	1796	10715
1343	1716	10720
1342	1621	10724
1342	1571	10729
1359	1499	10734
1431	1429	10738
1506	1544	10743
1469	1578	10748
1394	1672	10753
1281	1714	10758
1287	1488	10762
1425	1314	10767
1528	1258	10772
1503	1337	10776
1469	1692	10781
1433	1789	10786
1397	1569	10790
1355	1494	10796
1266	1467	10800
1248	1507	10805
1335	1457	10810
1459	1622	10814
1448	1497	10819
1355	1476	10824
1264	1693	10828
1351	1368	10833
1464	1493	10838
1450	1436	10843
1328	1311	10848
1276	1370	10852
1387	1353	10857
1579	1288	10862
1626	1470	10866
1546	1416	10871
1437	1607	10876
1390	1410	10881
1394	1465	10886
1381	1486	10890
1330	1366	10895
1277	1284	10900
1259	1396	10904
1431	1445	10909
1519	1236	10914
1407	1290	10918
1240	1426	10924
1255	1411	10928
1422	1309	10933
1600	1293	10938
1583	1315	10942
1456	1448	10947
1328	1376	10952
1288	1256	10956
1295	1258	10961
1412	1415	10966
1495	1297	10971
1432	1278	10976
1358	1284	10980
1300	1360	10985
1312	1375	10990
1413	1191	10994
1436	1226	10999
1413	1315	11004
1371	1519	11009
1355	1340	11014
1361	1271	11018
1334	1379	11023
1313	1228	11028
1284	1192	11032
1313	1272	11037
1404	1435	11042
1396	1375	11046
1386	1318	11052
1362	1367	11056
1353	1311	11061
1416	1456	11066
1461	1409	11070
1412	1292	11075
1410	1256	11080
1424	1273	11084
1406	1342	11089
1366	1605	11094
1313	1416	11099
1281	1344	11104
1314	1279	11108
1413	1325	11113
1458	1448	11118
1486	1387	11122
1417	1441	11127
1338	1542	11132
1323	1447	11137
1363	1372	11142
1363	1356	11146
1370	1375	11151
1437	1427	11156
1479	1450	11160
1441	1487	11165
1415	1616	11170
1394	1439	11174
1374	1460	11180
1395	1593	11184
1469	1527	11189
1525	1496	11194
1512	1475	11198
1441	1426	11203
1399	1403	11208
1410	1421	11212
1488	1455	11217
1562	1487	11222
1596	1442	11227
1578	1499	11232
1576	1539	11236
1639	1470	11241
1753	1544	11246
1743	1503	11250
1614	1470	11255
1555	1427	11260
1556	1440	11265
1582	1593	11270
1628	1516	11274
1641	1431	11279
1653	1382	11284
1663	1373	11288
1669	1379	11293
1696	1416	11298
1794	1460	11302
1791	1513	11308
1692	1457	11312
1624	1441	11317
1607	1426	11322
1608	1420	11326
1614	1448	11331
1640	1488	11336
1652	1437	11340
1645	1445	11345
1640	1426	11350
1641	1430	11355
1655	1486	11360
1689	1529	11364
1668	1493	11369
1637	1457	11374
1601	1435	11378
1585	1448	11383
1605	1595	11388
1642	1555	11393
1600	1485	11398
1567	1427	11402
1541	1417	11407
1544	1421	11412
1597	1440	11416
1602	1466	11421
1589	1531	11426
1564	1478	11430
1522	1451	11436
1503	1441	11440
1505	1469	11445
1506	1588	11450
1519	1497	11454
1521	1459	11459
1526	1446	11464
1526	1432	11468
1550	1455	11473
1587	1563	11478
1616	1628	11483
1637	1611	11488
1572	1499	11492
1496	1454	11497
1411	1447	11502
1399	1471	11506
1376	1578	11511
1412	1504	11516
1452	1476	11521
1462	1488	11526
1482	1471	11530
1517	1495	11535
1518	1517	11540
1481	1623	11544
1461	1551	11549
1441	1533	11554
1424	1472	11558
1401	1457	11564
1432	1495	11568
1490	1608	11573
1496	1521	11578
1457	1486	11582
1442	1458	11587
1410	1454	11592
1440	1466	11596
1491	1530	11601
1455	1601	11606
1453	1537	11611
1442	1539	11616
1421	1545	11620
1381	1494	11625
1359	1498	11630
1331	1567	11634
1306	1655	11639
1318	1538	11644
1365	1489	11649
1397	1478	11654
1438	1501	11658
1524	1675	11663
1591	1617	11668
1589	1531	11672
1500	1501	11677
1458	1469	11682
1448	1535	11686
1506	1552	11692
1512	1655	11696
1423	1616	11701
1379	1490	11706
1408	1457	11710
1465	1453	11715
1472	1469	11720
1486	1501	11724
1466	1504	11729
1413	1511	11734
1334	1527	11739
1368	1527	11744
1395	1659	11748
1399	1704	11753
1491	1629	11758
1549	1530	11762
1572	1490	11767
1549	1463	11772
1561	1468	11777
1598	1579	11782
1632	1647	11786
1574	1525	11791
1479	1488	11796
1414	1496	11800
1353	1529	11805
1328	1504	11810
1329	1480	11814
1305	1499	11820
1363	1502	11824
1432	1502	11829
1438	1511	11834
1403	1544	11838
1385	1664	11843
1469	1569	11848
1551	1551	11852
1558	1510	11857
1523	1498	11862
1470	1584	11867
1444	1830	11872
1417	1690	11876
1452	1568	11881
1396	1500	11886
1387	1480	11890
1374	1488	11895
1354	1505	11900
1387	1537	11905
1490	1601	11910
1543	1549	11914
1543	1546	11919
1485	1550	11924
1428	1632	11928
1380	1782	11933
1428	1652	11938
1449	1730	11942
1456	1700	11948
1547	1636	11952
1572	1666	11957
1508	1595	11962
1476	1546	11966
1550	1592	11971
1489	1729	11976
1357	1658	11980
1388	1587	11985
1560	1571	11990
1660	1592	11995
1584	1743	12000
1397	1750	12004
1349	1699	12009
1498	1531	12014
1592	1456	12018
1583	1507	12023
1489	1546	12028
1480	1530	12033
1549	1627	12038
1518	1596	12042
1466	1591	12047
1429	1851	12052
1450	1657	12056
1492	1469	12061
1526	1400	12066
1551	1585	12070
1480	1722	12076
1334	1581	12080
1254	1570	12085
1307	1517	12090
1437	1502	12094
1457	1554	12099
1450	1670	12104
1387	1777	12108
1287	1598	12113
1266	1636	12119
1362	1768	12123
1450	1628	12128
1485	1576	12132
1469	1368	12137
1500	1397	12142
1470	1562	12146
1434	1545	12151
1401	1505	12156
1353	1372	12161
1429	1414	12166
1520	1606	12170
1484	1485	12175
1469	1674	12180
1448	1636	12184
1403	1430	12189
1351	1372	12194
1374	1496	12198
1406	1316	12204
1374	1333	12208
1326	1366	12213
1341	1424	12218
1425	1423	12222
1495	1318	12227
1463	1338	12232
1518	1500	12236
1520	1322	12241
1459	1280	12246
1453	1481	12251
1557	1632	12256
1596	1505	12260
1494	1263	12265
1382	1356	12270
1468	1659	12274
1583	1425	12279
1553	1226	12284
1423	1304	12289
1363	1422	12294
1393	1367	12298
1474	1289	12303
1521	1456	12308
1489	1378	12312
1469	1226	12317
1436	1225	12322
1410	1307	12326
1469	1582	12332
1486	1400	12336
1438	1407	12341
1387	1488	12346
1439	1484	12350
1526	1223	12355
1543	1226	12360
1543	1324	12364
1528	1413	12369
1464	1330	12374
1462	1380	12379
1461	1420	12384
1476	1407	12388
1515	1274	12393
1497	1206	12398
1488	1290	12402
1527	1402	12407
1484	1340	12412
1371	1430	12417
1452	1312	12422
1542	1295	12426
1593	1327	12431
1599	1309	12436
1522	1399	12440
1475	1496	12445
1512	1504	12450
1507	1300	12454
1467	1274	12460
1495	1518	12464
1640	1405	12469
1733	1523	12474
1665	1487	12478
1543	1492	12483
1470	1419	12488
1500	1366	12492
1527	1453	12497
1476	1519	12502
1452	1342	12507
1534	1407	12512
1554	1341	12516
1505	1407	12521
1477	1493	12526
1482	1499	12530
1510	1458	12535
1527	1371	12540
1555	1425	12545
1573	1419	12550
1562	1477	12554
1569	1561	12559
1604	1454	12564
1605	1487	12568
1587	1466	12573
1579	1535	12578
1583	1530	12582
1578	1678	12588
1572	1527	12592
1567	1452	12597
1578	1444	12602
1603	1452	12606
1631	1440	12611
1683	1439	12616
1702	1489	12620
1695	1545	12625
1730	1564	12630
1733	1457	12635
1712	1452	12640
1769	1565	12644
1809	1456	12649
1759	1400	12654
1718	1384	12658
1704	1387	12663
1709	1410	12668
1719	1470	12673
1733	1441	12678
1737	1433	12682
1736	1426	12687
1738	1425	12692
1724	1440	12696
1713	1458	12701
1726	1536	12706
1743	1490	12710
1735	1470	12716
1730	1508	12720
1741	1452	12725
1762	1426	12730
1777	1486	12734
1794	1525	12739
1770	1429	12744
1751	1388	12748
1730	1377	12753
1732	1383	12758
1733	1403	12763
1726	1449	12768
1717	1430	12772
1713	1420	12777
1720	1418	12782
1729	1424	12786
1743	1469	12791
1777	1593	12796
1787	1541	12801
1736	1453	12806
1642	1418	12810
1589	1406	12815
1653	1461	12820
1707	1546	12824
1663	1476	12829
1584	1396	12834
1549	1379	12838
1543	1379	12844
1537	1392	12848
1558	1418	12853
1605	1436	12858
1625	1485	12862
1579	1480	12867
1558	1457	12872
1570	1450	12876
1616	1439	12881
1662	1576	12886
1724	1546	12891
1748	1455	12896
1657	1406	12900
1573	1386	12905
1505	1426	12910
1426	1487	12914
1370	1532	12919
1390	1450	12924
1472	1404	12929
1520	1384	12934
1552	1384	12938
1582	1411	12943
1606	1430	12948
1671	1422	12952
1770	1427	12957
1773	1547	12962
1694	1490	12966
1596	1527	12972
1547	1495	12976
1527	1507	12981
1539	1425	12986
1529	1414	12990
1515	1405	12995
1575	1404	13000
1597	1417	13004
1524	1508	13009
1497	1458	13014
1522	1431	13019
1533	1403	13024
1514	1399	13028
1517	1443	13033
1505	1541	13038
1498	1528	13042
1522	1477	13047
1505	1439	13052
1535	1425	13057
1676	1511	13062
1678	1755	13066
1658	1562	13071
1640	1462	13076
1557	1428	13080
1478	1447	13085
1469	1495	13090
1525	1435	13094
1503	1452	13100
1472	1512	13104
1471	1449	13109
1497	1401	13114
1491	1401	13118
1487	1408	13123
1501	1423	13128
1508	1474	13132
1524	1545	13137
1593	1480	13142
1621	1460	13147
1574	1458	13152
1587	1621	13156
1654	1679	13161
1683	1484	13166
1649	1458	13170
1593	1459	13175
1543	1468	13180
1520	1497	13185
1530	1502	13190
1570	1497	13194
1551	1494	13199
1518	1523	13204
1452	1631	13208
1476	1592	13213
1546	1582	13218
1595	1569	13222
1618	1612	13228
1602	1720	13232
1555	1659	13237
1517	1538	13242
1550	1513	13246
1649	1508	13251
1706	1502	13256
1682	1576	13260
1584	1745	13265
1591	1742	13271
1637	1581	13275
1628	1601	13280
1567	1553	13284
1533	1571	13289
1609	1704	13294
1659	1687	13298
1692	1631	13303
1639	1567	13308
1591	1578	13313
1562	1500	13318
1552	1490	13322
1588	1579	13327
1590	1656	13332
1570	1722	13336
1546	1593	13341
1583	1538	13346
1582	1483	13350
1547	1499	13356
1578	1645	13360
1546	1572	13365
1524	1616	13370
1492	1602	13374
1415	1412	13379
1393	1350	13384
1524	1393	13388
1625	1648	13393
1535	1603	13398
1352	1541	13403
1191	1467	13408
1235	1397	13412
1346	1406	13417
1514	1590	13422
1548	1898	13426
1510	1699	13431
1519	1621	13436
1573	1502	13441
1561	1756	13446
1564	1976	13450
1584	1679	13455
1600	1445	13460
1585	1424	13464
1598	1562	13469
1592	1423	13474
1496	1303	13478
1308	1227	13484
1244	1290	13488
1440	1524	13493
1587	1661	13498
1584	1326	13502
1491	1438	13507
1448	1494	13512
1521	1458	13516
1608	1454	13521
1586	1384	13527
1497	1651	13531
1406	1580	13536
1356	1628	13540
1339	1413	13545
1435	1332	13550
1455	1451	13554
1420	1458	13559
1361	1480	13564
1313	1356	13569
1292	1267	13574
1362	1439	13578
1496	1337	13583
1588	1417	13588
1534	1363	13592
1424	1252	13597
1441	1134	13602
1470	1331	13606
1463	1388	13612
1482	1291	13616
1483	1385	13621
1433	1374	13626
1366	1353	13630
1310	1393	13635
1322	1438	13640
1386	1267	13644
1449	1243	13649
1484	1362	13654
1517	1279	13659
1555	1348	13664
1562	1346	13668
1554	1288	13673
1547	1458	13678
1510	1354	13682
1427	1337	13687
1401	1376	13692
1414	1475	13697
1515	1295	13702
1557	1269	13706
1535	1311	13711
1443	1501	13716
1366	1226	13720
1383	1248	13725
1427	1300	13730
1450	1340	13734
1462	1242	13740
1537	1362	13744
1653	1519	13749
1642	1364	13754
1596	1292	13758
1619	1385	13763
1649	1476	13768
1715	1626	13772
1663	1539	13777
1499	1441	13782
1382	1404	13787
1409	1305	13792
1542	1330	13796
1587	1355	13801
1481	1396	13806
1405	1404	13810
1392	1338	13815
1420	1328	13820
1506	1448	13825
1589	1542	13830
1576	1442	13834
1544	1435	13839
1546	1433	13844
1601	1549	13848
1625	1594	13853
1653	1546	13858
1695	1522	13862
1638	1443	13868
1586	1441	13872
1522	1356	13877
1527	1430	13882
1505	1408	13886
1460	1516	13891
1445	1450	13896
1457	1504	13900
1488	1527	13905
1549	1513	13910
1592	1506	13915
1592	1479	13920
1592	1625	13924
1595	1445	13929
1606	1401	13934
1622	1420	13938
1677	1485	13943
1727	1548	13948
1732	1455	13953
1754	1447	13958
1732	1497	13962
1704	1432	13967
1710	1408	13972
1728	1482	13976
1749	1423	13981
1749	1513	13986
1730	1416	13990
1727	1391	13996
1730	1391	14000
1729	1396	14005
1729	1447	14010
1752	1439	14014
1772	1446	14019
1765	1437	14024
1758	1447	14028
1747	1487	14033
1740	1486	14038
1760	1495	14043
1797	1525	14048
1782	1475	14052
1744	1453	14057
1706	1460	14062
1683	1526	14066
1672	1488	14071
1674	1443	14076
1669	1412	14081
1673	1408	14086
1668	1419	14090
1686	1438	14095
1725	1477	14100
1734	1537	14104
1721	1469	14109
1655	1431	14114
1616	1409	14118
1675	1431	14124
1740	1503	14128
1756	1539	14133
1703	1444	14138
1644	1400	14142
1607	1378	14147
1600	1379	14152
1602	1427	14156
1606	1535	14161
1637	1462	14166
1641	1424	14171
1627	1399	14176
1630	1396	14180
1695	1439	14185
1782	1542	14190
1763	1535	14194
1666	1444	14199
1560	1399	14204
1527	1388	14209
1540	1404	14214
1563	1473	14218
1553	1505	14223
1587	1497	14228
1646	1457	14232
1657	1416	14237
1599	1403	14242
1567	1418	14246
1545	1549	14252
1517	1540	14256
1557	1476	14261
1585	1444	14266
1636	1417	14270
1657	1417	14275
1631	1440	14280
1717	1482	14284
1814	1680	14289
1743	1526	14294
1632	1453	14299
1524	1461	14304
1465	1419	14308
1489	1465	14313
1513	1540	14318
1510	1492	14322
1487	1441	14327
1466	1421	14332
1483	1424	14337
1482	1448	14342
1524	1535	14346
1628	1546	14351
1646	1488	14356
1596	1458	14360
1529	1450	14365
1463	1467	14370
1523	1558	14374
1584	1709	14380
1614	1644	14384
1582	1496	14389
1524	1447	14394
1479	1438	14398
1473	1452	14403
1573	1518	14408
1638	1741	14412
1597	1614	14417
1522	1499	14423
1454	1455	14427
1445	1443	14432
1516	1444	14436
1622	1601	14441
1584	1543	14446
1530	1481	14450
1503	1455	14455
1547	1447	14460
1592	1460	14465
1619	1471	14470
1691	1514	14474
1728	1575	14479
1664	1548	14484
1578	1523	14488
1560	1515	14493
1624	1535	14498
1599	1718	14502
1516	1598	14508
1479	1538	14512
1481	1516	14517
1478	1514	14522
1437	1511	14526
1400	1530	14531
1435	1625	14536
1416	1739	14540
1434	1601	14545
1467	1627	14550
1508	1534	14555
1565	1570	14560
1654	1589	14564
1744	1673	14569
1732	1597	14574
1623	1582	14578
1543	1562	14583
1505	1605	14588
1439	1801	14593
1385	1671	14598
1433	1651	14602
1506	1514	14607
1552	1487	14612
1582	1595	14616
1631	1742	14621
1692	1592	14626
1727	1539	14630
1736	1481	14636
1708	1471	14640
1679	1482	14645
1576	1533	14650
1476	1827	14654
1516	1636	14659
1604	1526	14664
1595	1527	14668
1583	1475	14673
1636	1458	14678
1716	1533	14683
1700	1898	14688
1570	1785	14692
1486	1540	14697
1516	1527	14702
1573	1540	14706
1580	1432	14711
1533	1488	14716
1539	1556	14721
1551	1526	14726
1590	1760	14730
1531	1667	14735
1390	1518	14740
1339	1430	14744
1410	1371	14749
1474	1431	14754
1509	1857	14758
1445	1771	14764
1405	1732	14768
1384	1636	14773
1371	1596	14778
1462	1382	14782
1513	1327	14787
1476	1606	14792
1380	1782	14796
1309	1461	14801
1358	1506	14806
1385	1511	14811
1358	1439	14816
1441	1382	14820
1552	1578	14825
1506	1626	14830
1358	1559	14834
1320	1439	14839
1474	1451	14844
1546	1465	14849
1553	1513	14854
1600	1596	14858
1585	1603	14863
1389	1641	14868
1251	1585	14872
1276	1668	14877
1460	1488	14882
1621	1381	14886
1618	1497	14892
1448	1385	14896
1315	1318	14901
1397	1371	14906
1575	1364	14910
1550	1338	14915
1424	1281	14920
1425	1359	14924
1494	1485	14929
1598	1304	14934
1593	1297	14939
1505	1538	14944
1503	1386	14948
1558	1509	14953
1462	1562	14958
1385	1246	14962
1361	1294	14967
1379	1429	14972
1502	1436	14977
1554	1547	14982
1513	1317	14986
1443	1232	14991
1476	1387	14996
1540	1335	15000
1575	1334	15005
1507	1267	15010
1437	1294	15014
1377	1307	15020
1441	1354	15024
1476	1406	15029
1427	1317	15034
1354	1347	15038
1329	1501	15043
1301	1438	15048
1289	1246	15052
1330	1286	15057
1358	1389	15063
1308	1322	15067
1415	1470	15072
1569	1488	15076
1554	1466	15081
1381	1419	15086
1249	1471	15090
1290	1323	15095
1374	1336	15100
1426	1366	15105
1568	1529	15110
1613	1514	15114
1550	1483	15119
1427	1353	15124
1399	1292	15128
1428	1361	15133
1443	1431	15138
1437	1597	15142
1443	1426	15148
1533	1478	15152
1520	1537	15157
1470	1464	15162
1536	1381	15166
1595	1434	15171
1554	1453	15176
1549	1373	15180
1549	1502	15185
1520	1507	15191
1476	1558	15195
1468	1466	15200
1556	1500	15204
1593	1552	15209
1554	1476	15214
1511	1490	15218
1521	1534	15223
1576	1512	15228
1607	1447	15233
1589	1460	15238
1570	1426	15242
1606	1466	15247
1670	1465	15252
1719	1478	15256
1720	1548	15261
1676	1476	15266
1632	1476	15270
1601	1532	15276
1603	1530	15280
1641	1492	15285
1690	1498	15290
1706	1502	15294
1760	1557	15299
1774	1470	15304
1737	1402	15308
1716	1397	15313
1714	1405	15318
1684	1525	15323
1665	1429	15328
1664	1398	15332
1674	1432	15337
1682	1452	15342
1690	1435	15346
1699	1430	15351
1700	1451	15356
1681	1484	15361
1684	1477	15366
1735	1562	15370
1745	1471	15375
1730	1422	15380
1709	1408	15384
1713	1418	15389
1722	1427	15394
1718	1444	15398
1702	1457	15404
1689	1480	15408
1675	1519	15413
1682	1582	15418
1685	1678	15422
1687	1537	15427
1708	1496	15432
1714	1441	15436
1691	1424	15441
1688	1442	15446
1671	1483	15451
1649	1455	15456
1611	1447	15460
1579	1425	15465
1565	1424	15470
1571	1445	15474
1576	1506	15479
1608	1566	15484
1619	1509	15489
1610	1450	15494
1570	1423	15498
1526	1419	15503
1505	1439	15508
1489	1508	15512
1500	1513	15517
1516	1504	15522
1504	1484	15526
1488	1474	15532
1483	1492	15536
1484	1561	15541
1515	1600	15546
1556	1525	15550
1506	1479	15555
1415	1459	15560
1378	1460	15564
1385	1459	15569
1427	1446	15574
1461	1436	15579
1490	1503	15584
1469	1501	15588
1448	1472	15593
1434	1445	15598
1457	1431	15602
1484	1470	15607
1571	1597	15612
1573	1590	15617
1531	1446	15622
1412	1391	15626
1383	1381	15631
1427	1392	15636
1519	1469	15640
1511	1618	15645
1420	1456	15650
1303	1407	15654
1265	1379	15660
1339	1376	15664
1400	1379	15669
1478	1408	15674
1513	1508	15678
1497	1518	15683
1430	1441	15688
1386	1408	15692
1358	1392	15697
1373	1402	15702
1466	1469	15707
1511	1556	15712
1515	1457	15716
1521	1435	15721
1470	1422	15726
1372	1439	15730
1306	1463	15735
1381	1522	15740
1465	1590	15745
1540	1546	15750
1535	1513	15754
1487	1458	15759
1455	1427	15764
1458	1459	15768
1459	1553	15773
1545	1514	15778
1542	1561	15782
1487	1468	15788
1397	1458	15792
1339	1444	15797
1319	1489	15802
1351	1589	15806
1377	1508	15811
1403	1441	15816
1376	1417	15820
1345	1414	15825
1340	1425	15831
1449	1433	15835
1589	1468	15840
1573	1559	15844
1457	1495	15849
1323	1454	15854
1259	1451	15858
1275	1463	15863
1324	1632	15868
1299	1691	15873
1312	1549	15878
1324	1475	15882
1329	1448	15887
1370	1447	15892
1419	1456	15896
1494	1512	15901
1505	1598	15906
1479	1553	15910
1415	1475	15916
1377	1455	15920
1320	1459	15925
1377	1484	15930
1458	1523	15934
1514	1546	15939
1511	1516	15944
1471	1513	15948
1387	1520	15953
1359	1523	15959
1414	1533	15963
1466	1645	15968
1456	1816	15972
1421	1643	15977
1427	1575	15982
1438	1552	15986
1461	1561	15991
1477	1658	15996
1497	1669	16001
1445	1571	16006
1351	1514	16010
1334	1563	16015
1444	1747	16020
1527	1774	16024
1495	1694	16029
1459	1932	16034
1441	1758	16038
1508	1632	16044
1521	1654	16048
1502	1535	16053
1444	1576	16058
1431	1735	16062
1383	1718	16067
1349	1605	16072
1389	1528	16076
1418	1340	16081
1435	1340	16086
1490	1491	16091
1451	1792	16096
1368	1758	16100
1308	1834	16105
1260	1624	16110
1219	1523	16114
1230	1401	16119
1307	1334	16124
1403	1454	16129
1472	1578	16134
1458	1732	16138
1281	1632	16143
1178	1546	16148
1256	1571	16152
1457	1578	16157
1482	1556	16162
1454	1561	16166
1310	1646	16172
1325	1550	16176
1519	1447	16181
1652	1390	16186
1565	1455	16190
1410	1579	16195
1372	1586	16200
1421	1392	16204
1464	1400	16209
1584	1436	16214
1586	1294	16219
1447	1304	16224
1349	1662	16228
1470	1438	16233
1574	1294	16238
1501	1486	16242
1402	1370	16247
1409	1279	16252
1408	1348	16257
1414	1386	16262
1351	1149	16266
1251	1235	16271
1218	1391	16276
1306	1494	16280
1363	1444	16285
1423	1325	16290
1413	1482	16294
1357	1325	16300
1390	1198	16304
1427	1270	16309
1391	1454	16314
1338	1357	16318
1316	1201	16323
1318	1261	16328
1407	1427	16332
1513	1229	16337
1451	1111	16342
1219	1233	16347
1181	1395	16352
1343	1228	16356
1525	1334	16361
1577	1459	16366
1406	1269	16370
1267	1305	16375
1287	1355	16380
1394	1251	16385
1433	1219	16390
1433	1280	16394
1432	1390	16399
1420	1423	16404
1342	1506	16408
1274	1326	16413
1198	1215	16418
1173	1224	16422
1362	1327	16428
1568	1660	16432
1495	1414	16437
1401	1324	16442
1388	1260	16446
1367	1529	16451
1377	1526	16456
1413	1300	16460
1439	1264	16465
1517	1268	16470
1622	1376	16475
1613	1500	16480
1499	1524	16484
1359	1489	16489
1266	1346	16494
1284	1393	16498
1341	1491	16503
1368	1678	16508
1329	1519	16513
1275	1479	16518
1252	1366	16522
1317	1382	16527
1434	1375	16532
1504	1483	16536
1442	1496	16541
1368	1624	16546
1319	1470	16550
1315	1493	16556
1326	1548	16560
1371	1529	16565
1412	1501	16570
1405	1491	16574
1412	1513	16579
1466	1476	16584
1572	1549	16588
1548	1572	16593
1419	1769	16598
1351	1536	16603
1367	1478	16608
1426	1489	16612
1452	1498	16617
1460	1589	16622
1452	1546	16626
1453	1486	16631
1502	1476	16636
1575	1469	16641
1659	1494	16646
1698	1562	16650
1684	1539	16655
1597	1562	16660
1543	1533	16664
1532	1446	16669
1537	1414	16674
1549	1410	16678
1564	1426	16684
1585	1483	16688
1597	1460	16693
1604	1470	16698
1616	1472	16702
1634	1477	16707
1665	1497	16712
1708	1514	16716
1752	1516	16721
1745	1567	16726
1718	1497	16731
1706	1469	16736
1701	1515	16740
1706	1530	16745
1706	1478	16750
1706	1470	16754
1699	1466	16759
1684	1485	16764
1671	1525	16769
1682	1527	16774
1731	1536	16778
1731	1510	16783
1695	1468	16788
1640	1415	16792
1612	1407	16797
1625	1415	16802
1664	1457	16806
1719	1443	16812
1719	1425	16816
1653	1423	16821
1580	1431	16826
1563	1477	16830
1565	1544	16835
1553	1542	16840
1524	1500	16844
1530	1465	16849
1568	1447	16854
1588	1460	16859
1629	1482	16864
1709	1527	16868
1729	1567	16873
1660	1500	16878
1587	1474	16882
1550	1464	16887
1613	1587	16892
1649	1616	16897
1571	1500	16902
1465	1463	16906
1449	1443	16911
1548	1434	16916
1578	1449	16920
1574	1485	16925
1587	1510	16930
1544	1500	16934
1501	1467	16940
1527	1456	16944
1557	1448	16949
1603	1504	16954
1670	1555	16958
1707	1555	16963
1702	1530	16968
1638	1466	16972
1576	1422	16977
1521	1413	16982
1473	1433	16987
1433	1532	16992
1445	1465	16996
1476	1442	17001
1500	1427	17006
1539	1432	17010
1605	1452	17015
1601	1523	17020
1620	1520	17025
1626	1495	17030
1604	1432	17034
1500	1426	17039
1436	1442	17044
1461	1556	17048
1587	1616	17053
1619	1570	17058
1596	1461	17062
1572	1433	17068
1517	1419	17072
1498	1434	17077
1447	1544	17082
1460	1453	17086
1486	1459	17091
1499	1444	17096
1504	1425	17100
1517	1422	17105
1522	1424	17110
1508	1450	17115
1507	1512	17120
1547	1504	17124
1639	1484	17129
1638	1481	17134
1594	1491	17138
1558	1651	17143
1560	1674	17148
1550	1625	17153
1483	1524	17158
1413	1489	17162
1446	1465	17167
1505	1518	17172
1551	1566	17176
1576	1507	17181
1577	1466	17186
1474	1460	17190
1422	1511	17196
1466	1591	17200
1563	1534	17205
1549	1542	17210
1521	1528	17214
1527	1516	17219
1549	1469	17224
1558	1473	17228
1574	1493	17233
1616	1566	17239
1628	1574	17243
1615	1507	17248
1573	1506	17252
1533	1584	17257
1522	1669	17262
1556	1587	17266
1590	1590	17271
1588	1575	17276
1593	1513	17281
1552	1524	17286
1513	1592	17290
1539	1693	17295
1511	1725	17300
1418	1651	17304
1415	1575	17309
1468	1691	17314
1574	1738	17318
1604	1660	17324
1508	1621	17328
1433	1561	17333
1434	1668	17338
1550	1536	17342
1638	1496	17347
1578	1519	17352
1439	1691	17356
1429	1668	17361
1508	1542	17367
1583	1476	17371
1562	1642	17376
1566	1732	17380
1547	1674	17385
1510	1714	17390
1533	1642	17394
1559	1645	17399
1519	1759	17404
1470	1705	17409
1529	1645	17414
1518	1694	17418
1462	1525	17423
1412	1638	17428
1442	1558	17432
1465	1432	17437
1453	1375	17442
1424	1379	17446
1440	1484	17452
1399	1714	17456
1303	1885	17461
1262	1692	17466
1249	1669	17470
1327	1631	17475
1433	1716	17480
1419	1527	17484
1417	1400	17489
1449	1621	17494
1454	1807	17499
1456	1547	17504
1408	1502	17508
1375	1429	17513
1415	1577	17518
1427	1556	17522
1424	1568	17527
1385	1577	17532
1392	1668	17537
1506	1512	17542
1603	1389	17546
1548	1660	17551
1469	1552	17556
1469	1443	17560
1484	1516	17565
1491	1668	17570
1476	1577	17574
1409	1655	17580
1477	1531	17584
1519	1498	17589
1548	1495	17594
1548	1497	17598
1623	1367	17603
1625	1566	17608
1456	1317	17612
1348	1427	17617
1307	1592	17623
1329	1388	17627
1398	1506	17632
1408	1456	17636
1353	1315	17641
1356	1533	17646
1459	1445	17650
1498	1426	17655
1453	1501	17660
1319	1329	17665
1277	1223	17670
1486	1495	17674
1677	1454	17679
1662	1214	17684
1525	1199	17688
1426	1428	17693
1463	1242	17698
1569	1332	17702
1557	1310	17708
1549	1204	17712
1543	1150	17717
1614	1294	17722
1613	1636	17726
1497	1641	17731
1316	1400	17736
1281	1418	17740
1335	1452	17745
1393	1510	17751
1388	1326	17755
1459	1311	17760
1512	1470	17764
1478	1396	17769
1435	1423	17774
1421	1386	17778
1409	1309	17783
1434	1450	17788
1575	1445	17793
1656	1237	17798
1610	1217	17802
1488	1329	17807
1452	1431	17812
1493	1600	17816
1491	1478	17821
1456	1427	17826
1395	1514	17830
1426	1461	17836
1538	1363	17840
1553	1406	17845
1558	1506	17850
1451	1433	17854
1311	1515	17859
1341	1543	17864
1459	1493	17868
1574	1363	17873
1620	1402	17879
1669	1494	17883
1675	1674	17888
1581	1440	17892
1479	1364	17897
1430	1359	17902
1434	1444	17906
1499	1478	17911
1560	1596	17916
1548	1596	17921
1549	1512	17926
1531	1515	17930
1516	1584	17935
1523	1591	17940
1522	1625	17944
1584	1565	17949
1705	1535	17954
1789	1526	17958
1771	1476	17964
1627	1656	17968
1491	1568	17973
1425	1496	17978
1419	1464	17982
1473	1498	17987
1543	1514	17992
1571	1522	17996
1587	1708	18001
1619	1577	18007
1614	1568	18011
1606	1554	18016
1652	1491	18020
1679	1428	18025
1647	1414	18030
1624	1411	18034
1651	1467	18039
1719	1435	18044
1719	1407	18049
1685	1392	18054
1677	1398	18058
1703	1408	18063
1720	1486	18068
1708	1531	18072
1690	1509	18077
1698	1456	18082
1717	1405	18086
1742	1386	18092
1758	1382	18096
1755	1402	18101
1766	1501	18106
1788	1451	18110
1797	1491	18115
1792	1455	18120
1784	1451	18124
1779	1463	18129
1773	1509	18135
1779	1503	18139
1777	1468	18144
1766	1454	18148
1748	1454	18153
1732	1487	18158
1757	1557	18162
1789	1598	18167
1812	1497	18172
1801	1436	18177
1783	1407	18182
1774	1401	18186
1779	1415	18191
1794	1452	18196
1800	1539	18200
1802	1492	18205
1822	1451	18210
1810	1425	18214
1781	1422	18220
1771	1444	18224
1784	1541	18229
1800	1552	18234
1823	1507	18238
1822	1464	18243
1794	1431	18248
1746	1439	18252
1737	1509	18257
1742	1536	18263
1702	1546	18267
1659	1478	18272
1647	1433	18276
1626	1410	18281
1618	1410	18286
1614	1417	18290
1649	1438	18295
1657	1489	18300
1696	1476	18305
1724	1458	18310
1673	1452	18314
1610	1477	18319
1636	1665	18324
1659	1546	18328
1695	1485	18333
1625	1456	18338
1519	1433	18342
1531	1504	18348
1575	1590	18352
1614	1448	18357
1659	1414	18362
1633	1389	18366
1554	1383	18371
1509	1392	18376
1483	1423	18380
1541	1551	18385
1618	1643	18391
1697	1550	18395
1779	1440	18400
1747	1389	18404
1648	1380	18409
1590	1392	18414
1513	1466	18418
1514	1457	18423
1545	1433	18428
1565	1433	18433
1556	1442	18438
1557	1449	18442
1564	1509	18447
1511	1473	18452
1530	1554	18456
1642	1488	18461
1685	1445	18466
1635	1420	18470
1540	1418	18476
1521	1521	18481
1520	1667	18485
1515	1657	18490
1507	1483	18494
1444	1427	18499
1412	1402	18504
1433	1414	18508
1476	1567	18513
1546	1585	18519
1572	1477	18523
1512	1430	18528
1436	1407	18532
1377	1391	18537
1409	1396	18542
1494	1418	18546
1524	1526	18551
1577	1499	18556
1597	1437	18561
1555	1415	18566
1496	1413	18570
1439	1429	18575
1418	1527	18580
1475	1554	18584
1537	1492	18589
1582	1464	18594
1551	1455	18598
1455	1490	18604
1442	1626	18608
1508	1574	18613
1528	1498	18618
1516	1453	18622
1536	1420	18627
1538	1424	18632
1444	1542	18636
1333	1667	18641
1420	1530	18647
1560	1465	18651
1629	1437	18656
1609	1429	18660
1540	1437	18665
1475	1479	18670
1474	1591	18674
1514	1555	18679
1508	1502	18684
1479	1476	18689
1441	1465	18694
1380	1544	18698
1366	1707	18703
1430	1593	18708
1553	1541	18712
1664	1492	18717
1664	1465	18722
1582	1464	18726
1511	1473	18732
1453	1506	18737
1454	1599	18741
1442	1623	18746
1446	1677	18750
1417	1672	18755
1444	1553	18760
1498	1514	18764
1521	1693	18769
1534	1864	18775
1491	1614	18779
1502	1550	18784
1487	1515	18788
1428	1455	18793
1399	1461	18798
1453	1489	18802
1527	1651	18807
1543	1889	18812
1490	1641	18817
1442	1747	18822
1501	1769	18826
1528	1547	18831
1564	1495	18836
1521	1683	18840
1446	1702	18845
1477	1719	18850
1524	1846	18854
1476	1742	18860
1379	1537	18865
1358	1419	18869
1310	1733	18874
1225	1801	18878
1210	1512	18883
1225	1384	18888
1211	1448	18892
1091	1661	18897
1043	1610	18903
1122	1502	18907
1254	1438	18912
1395	1676	18916
1427	1732	18921
1360	1506	18926
1284	1390	18930
1285	1422	18935
1318	1371	18940
1378	1401	18945
1369	1498	18950
1367	1516	18954
1423	1728	18959
1450	1768	18964
1260	1751	18968
1124	1618	18973
1227	1419	18978
1367	1248	18982
1368	1341	18988
1324	1796	18992
1306	1604	18997
1289	1448	19002
1262	1480	19006
1341	1421	19011
1391	1358	19016
1366	1307	19020
1278	1445	19025
1227	1782	19031
1245	1580	19035
1269	1429	19040
1279	1621	19044
1238	1560	19049
1248	1402	19054
1326	1378	19058
1383	1436	19063
1333	1508	19068
1225	1570	19073
1198	1380	19078
1185	1327	19082
1308	1351	19087
1376	1462	19092
1429	1419	19096
1425	1336	19101
1370	1462	19106
1269	1383	19110
1174	1402	19116
1149	1557	19121
1182	1563	19125
1314	1336	19130
1340	1293	19134
1302	1450	19139
1232	1363	19144
1199	1233	19148
1243	1364	19153
1412	1589	19159
1511	1276	19163
1356	1210	19168
1183	1261	19172
1203	1339	19177
1376	1416	19182
1465	1444	19186
1421	1447	19191
1454	1544	19196
1477	1492	19201
1378	1316	19206
1240	1270	19210
1168	1402	19215
1249	1663	19220
1363	1540	19224
1325	1311	19229
1263	1221	19234
1264	1226	19238
1312	1248	19244
1390	1320	19248
1423	1503	19253
1352	1428	19258
1290	1319	19262
1247	1377	19267
1264	1485	19272
1314	1405	19276
1333	1375	19281
1257	1411	19287
1197	1581	19291
1158	1610	19296
1245	1566	19300
1388	1539	19305
1427	1445	19310
1326	1377	19314
1249	1348	19319
1255	1404	19324
1275	1571	19329
1317	1585	19334
1336	1491	19338
1325	1571	19343
1321	1533	19348
1341	1514	19352
1366	1563	19357
1390	1544	19362
1405	1522	19366
1395	1547	19372
1393	1468	19376
1384	1509	19381
1361	1472	19386
1347	1484	19390
1352	1552	19395
1392	1489	19400
1445	1481	19404
1444	1511	19409
1399	1600	19414
1379	1655	19419
1384	1536	19424
1393	1542	19428
1430	1499	19433
1532	1570	19438
1556	1525	19442
1547	1619	19447
1494	1515	19452
1434	1508	19457
1401	1454	19462
1464	1463	19466
1510	1488	19471
1480	1525	19476
1457	1604	19480
1472	1521	19485
1486	1481	19490
1527	1454	19494
1529	1458	19500
1485	1439	19504
1439	1439	19509
1421	1495	19514
1430	1480	19518
1439	1443	19523
1451	1421	19528
1459	1421	19532
1473	1430	19537
1490	1434	19543
1495	1457	19547
1493	1462	19552
1511	1469	19556
1530	1462	19561
1545	1497	19566
1537	1534	19570
1518	1525	19575
1506	1538	19580
1518	1464	19585
1579	1433	19590
1606	1433	19594
1609	1450	19599
1617	1476	19604
1601	1481	19608
1567	1542	19613
1512	1472	19618
1465	1463	19622
1454	1458	19628
1474	1546	19632
1434	1605	19637
1388	1547	19642
1431	1460	19646
1489	1419	19651
1533	1402	19656
1575	1413	19660
1622	1428	19665
1646	1441	19671
1618	1480	19675
1566	1496	19680
1520	1498	19684
1491	1459	19689
1506	1452	19694
1508	1493	19698
1524	1505	19703
1513	1461	19708
1491	1419	19713
1457	1403	19718
1382	1437	19722
1314	1501	19727
1354	1479	19732
1439	1455	19736
1456	1470	19741
1462	1522	19746
1502	1494	19750
1512	1497	19756
1497	1465	19760
1452	1488	19765
1498	1474	19770
1513	1451	19774
1438	1418	19779
1363	1420	19784
1403	1471	19788
1420	1556	19793
1311	1508	19799
1264	1468	19803
1257	1432	19808
1267	1413	19812
1279	1451	19817
1349	1469	19822
1397	1459	19826
1395	1491	19831
1409	1454	19836
1426	1418	19841
1423	1407	19846
1423	1516	19850
1454	1672	19855
1471	1545	19860
1514	1505	19864
1494	1423	19869
1439	1388	19874
1361	1407	19878
1286	1488	19884
1248	1434	19888
1299	1472	19893
1351	1499	19898
1425	1421	19902
1403	1393	19907
1340	1393	19912
1305	1447	19916
1360	1585	19921
1413	1529	19927
1450	1485	19931
1439	1480	19936
1427	1437	19940
1395	1383	19945
1404	1395	19950
1448	1447	19954
1508	1426	19959
1454	1427	19964
1332	1427	19969
1265	1418	19974
1240	1474	19978
1276	1526	19983
1340	1439	19988
1352	1415	19992
1331	1407	19997
1320	1417	20002
1304	1459	20006
1229	1503	20012
1204	1527	20016
1255	1537	20021
1435	1532	20026
1528	1480	20030
1553	1484	20035
1557	1578	20040
1495	1583	20044
1432	1522	20049
1332	1533	20055
1278	1460	20059
1309	1414	20064
1367	1412	20068
1427	1425	20073
1438	1422	20078
1418	1426	20082
1408	1453	20087
1409	1447	20092
1386	1445	20097
1359	1456	20102
1357	1487	20106
1315	1582	20111
1307	1721	20116
1351	1588	20120
1410	1489	20125
1431	1451	20130
1450	1433	20134
1449	1440	20140
1469	1464	20144
1556	1519	20149
1615	1516	20154
1618	1501	20158
1529	1476	20163
1445	1479	20168
1407	1500	20172
1373	1610	20177
1329	1589	20183
1343	1540	20187
1421	1504	20192
1484	1494	20196
1490	1537	20201
1476	1720	20206
1449	1756	20210
1498	1592	20215
1547	1526	20220
1546	1502	20225
1552	1500	20230
1565	1665	20234
1505	1747	20239
1500	1592	20244
1513	1526	20248
1478	1587	20253
1448	1505	20258
1459	1543	20262
1479	1625	20268
1510	1805	20272
1485	1778	20277
1519	1645	20282
1614	1654	20286
1590	1609	20291
1491	1482	20296
1525	1409	20300
1665	1378	20305
1722	1435	20310
1580	1771	20315
1336	1937	20320
1207	1815	20324
1327	1658	20329
1518	1522	20334
1703	1461	20338
1737	1669	20343
1531	2047	20348
1334	1964	20353
1349	1798	20358
1498	1683	20362
1573	1423	20367
1592	1368	20372
1527	1381	20376
1530	1603	20381
1533	1855	20386
1513	1846	20390
1489	1549	20396
1497	1478	20400
1465	1473	20405
1461	1352	20410
1574	1336	20414
1579	1459	20419
1598	1626	20424
1718	1578	20428
1752	1630	20433
1640	1598	20438
1585	1413	20443
1553	1431	20448
1514	1499	20452
1518	1598	20457
1599	1610	20462
1626	1481	20466
1565	1524	20471
1489	1449	20476
1474	1504	20481
1436	1611	20486
1385	1461	20490
1430	1445	20495
1467	1431	20500
1416	1269	20504
1381	1291	20509
1454	1413	20514
1509	1434	20518
1531	1425	20524
1455	1503	20528
1348	1498	20533
1283	1462	20538
1337	1390	20542
1413	1382	20547
1480	1406	20552
1671	1344	20556
1719	1424	20561
1616	1596	20566
1539	1323	20571
1549	1250	20576
1600	1497	20580
1718	1428	20585
1788	1432	20590
1745	1408	20594
1646	1272	20599
1584	1268	20604
1632	1408	20609
1638	1388	20614
1666	1324	20618
1713	1239	20623
1676	1356	20628
1510	1402	20632
1481	1328	20637
1540	1298	20642
1607	1443	20646
1698	1530	20652
1752	1575	20656
1727	1324	20661
1626	1309	20666
1624	1455	20670
1690	1492	20675
1677	1433	20680
1596	1243	20684
1526	1204	20689
1483	1494	20694
1473	1603	20699
1606	1421	20704
1729	1387	20708
1757	1498	20713
1714	1476	20718
1612	1370	20722
1510	1283	20727
1469	1399	20732
1463	1436	20737
1606	1462	20742
1777	1372	20746
1768	1446	20751
1642	1358	20756
1577	1315	20760
1577	1503	20765
1700	1534	20770
1801	1423	20774
1814	1445	20780
1774	1455	20784
1818	1438	20789
1805	1501	20794
1685	1533	20798
1536	1534	20803
1507	1618	20808
1565	1632	20812
1712	1467	20817
1793	1455	20822
1727	1410	20827
1650	1463	20832
1639	1584	20836
1624	1716	20841
1580	1631	20846
1657	1579	20850
1781	1469	20855
1884	1460	20860
1832	1482	20865
1743	1527	20870
1705	1647	20874
1839	1669	20879
1876	1714	20884
1785	1597	20888
1644	1573	20893
1610	1701	20898
1634	1577	20902
1650	1500	20908
1671	1661	20912
1769	1695	20917
1912	1610	20922
1916	1584	20926
1866	1615	20931
1905	1572	20936
1875	1482	20940
1783	1547	20945
1690	1535	20950
1652	1489	20955
1676	1650	20960
1715	1558	20964
1831	1500	20969
1874	1483	20974
1877	1462	20978
1866	1543	20983
1877	1559	20988
1942	1465	20993
1953	1434	20998
1856	1449	21002
1740	1561	21007
1696	1462	21012
1715	1466	21016
1746	1552	21021
1774	1457	21026
1777	1450	21030
1808	1457	21036
1919	1455	21040
1960	1507	21045
1881	1479	21050
1824	1462	21054
1821	1501	21059
1840	1504	21064
1853	1497	21068
1858	1732	21073
1844	1634	21078
1852	1546	21083
1893	1468	21088
1925	1438	21092
1932	1462	21097
1937	1501	21102
1926	1470	21106
1914	1586	21111
1889	1620	21116
1877	1540	21121
1869	1505	21126
1861	1478	21130
1853	1672	21135
1853	1619	21140
1876	1548	21144
1919	1506	21149
1932	1485	21154
1922	1485	21158
1892	1585	21164
1864	1547	21168
1853	1514	21173
1848	1569	21178
1844	1577	21182
1839	1517	21187
1810	1510	21192
1747	1491	21196
1720	1495	21201
1743	1501	21206
1764	1531	21211
1763	1570	21216
1753	1624	21220
1733	1637	21225
1718	1557	21230
1720	1531	21234
1733	1512	21239
1732	1478	21244
1699	1563	21249
1660	1534	21254
1630	1518	21258
1604	1558	21263
1577	1596	21268
1566	1509	21272
1563	1495	21277
1570	1477	21282
1573	1482	21286
1543	1604	21292
1512	1553	21296
1528	1513	21301
1531	1503	21306
1533	1562	21310
1542	1567	21315
1547	1529	21320
1550	1535	21324
1549	1508	21329
1517	1596	21334
1467	1561	21339
1432	1555	21344
1438	1547	21348
1441	1610	21353
1438	1519	21358
1438	1511	21362
1427	1490	21367
1419	1478	21372
1419	1533	21377
1422	1501	21382
1422	1491	21386
1418	1516	21391
1411	1602	21396
1412	1559	21400
1429	1545	21405
1438	1591	21410
1437	1566	21414
1409	1520	21420
1377	1500	21424
1360	1525	21429
1350	1652	21434
1344	1563	21438
1331	1530	21443
1333	1526	21448
1353	1516	21452
1355	1541	21457
1350	1506	21462
1352	1503	21467
1352	1517	21472
1360	1605	21476
1360	1535	21481
1347	1507	21486
1340	1527	21490
1336	1539	21495
1337	1518	21500
1338	1580	21505
1328	1605	21510
1317	1587	21514
1319	1590	21519
1317	1526	21524
1304	1473	21528
1304	1476	21533
1306	1474	21538
1305	1534	21542
1307	1623	21548
1312	1625	21552
1323	1533	21557
1324	1484	21562
1323	1466	21566
1321	1466	21571
1322	1472	21576
1326	1481	21580
1335	1493	21585
1345	1509	21590
1347	1521	21595
1341	1551	21600
1333	1539	21604
1331	1535	21609
1328	1536	21614
1327	1552	21618
1325	1594	21623
1316	1590	21628
1323	1575	21633
1323	1606	21638
1316	1559	21642
1309	1538	21647
1307	1533	21652
1311	1565	21656
1319	1547	21661
1326	1624	21666
1332	1576	21670
1339	1548	21676
1350	1525	21680
1353	1552	21685
1355	1570	21690
1346	1529	21694
1338	1497	21699
1337	1492	21704
1333	1486	21708
1329	1484	21713
1324	1489	21718
1318	1500	21723
1309	1550	21728
1301	1587	21732
1298	1519	21737
1297	1492	21742
1298	1494	21746
1299	1562	21751
1299	1538	21756
1304	1506	21761
1311	1520	21766
1308	1513	21770
1301	1505	21775
1294	1505	21780
1291	1543	21784
1294	1494	21789
1294	1479	21794
1291	1495	21798
1290	1474	21804
1288	1476	21808
1287	1523	21813
1290	1502	21818
1288	1483	21822
1287	1519	21827
1283	1504	21832
1286	1484	21836
1296	1477	21841
1298	1573	21846
1302	1542	21851
1300	1497	21856
1296	1489	21860
1296	1500	21865
1302	1507	21870
1305	1493	21874
1306	1495	21879
1309	1510	21884
1308	1515	21889
1310	1538	21894
1313	1540	21898
1314	1534	21903
1316	1503	21908
1318	1512	21912
1318	1502	21917
1317	1548	21922
1326	1517	21926
1327	1488	21932
1329	1508	21936
1331	1495	21941
1332	1481	21946
1333	1479	21950
1332	1481	21955
1334	1492	21960
1334	1549	21964
1338	1512	21969
1342	1533	21974
1346	1532	21979
1349	1512	21984
1347	1502	21988
1344	1489	21993
1347	1482	21998
1350	1489	22002
1351	1523	22007
1352	1515	22012
1348	1498	22017
1342	1487	22022
1338	1482	22026
1338	1480	22031
1339	1481	22036
1340	1544	22040
1343	1510	22045
1347	1493	22050
1351	1487	22054
1357	1483	22060
1362	1494	22064
1366	1488	22069
1371	1492	22074
1376	1504	22078
1388	1530	22083
1402	1533	22088
1407	1507	22092
1403	1490	22097
1396	1484	22103
1387	1482	22107
1386	1484	22112
1391	1493	22116
1393	1514	22121
1392	1496	22126
1387	1489	22130
1380	1485	22135
1374	1480	22140
1369	1483	22145
1366	1518	22150
1365	1510	22154
1375	1496	22159
1388	1517	22164
1405	1491	22168
1416	1475	22173
1425	1471	22178
1442	1476	22182
1456	1473	22188
1469	1477	22192
1476	1481	22197
1471	1478	22202
1457	1477	22206
1442	1478	22211
1437	1483	22216
1432	1513	22220
1428	1518	22225
1423	1538	22231
1423	1526	22235
1421	1511	22240
1419	1504	22244
1415	1494	22249
1413	1504	22254
1412	1495	22258
1410	1491	22263
1406	1491	22268
1399	1492	22273
1394	1496	22278
1396	1498	22282
1397	1497	22287
1397	1501	22292
1399	1557	22296
1402	1544	22301
1402	1520	22306
1395	1501	22310
1389	1538	22316
1387	1499	22320
1386	1486	22325
1385	1489	22330
1387	1492	22334
1388	1482	22339
1389	1478	22344
1390	1478	22348
1391	1475	22353
1394	1477	22359
1397	1484	22363
1398	1506	22368
