1487	1509	4
1491	1522	9
1491	1511	13
1488	1508	18
1484	1558	22
1485	1535	27
1480	1511	31
1472	1505	36
1478	1508	40
1494	1511	45
1496	1533	50
1492	1582	54
1476	1533	59
1462	1514	63
1458	1521	68
1455	1501	72
1465	1500	77
1471	1516	81
1469	1497	87
1462	1504	91
1471	1493	96
1479	1505	100
1482	1488	105
1482	1493	109
1480	1485	114
1474	1494	118
1471	1510	123
1470	1523	128
1472	1491	133
1476	1496	137
1482	1488	142
1488	1492	146
1488	1489	151
1483	1475	156
1485	1500	160
1489	1536	165
1496	1494	169
1506	1511	175
1510	1508	179
1493	1534	184
1484	1489	188
1485	1479	193
1477	1490	197
1484	1503	202
1493	1487	206
1485	1480	211
1485	1463	216
1498	1467	221
1506	1462	225
1514	1486	230
1512	1490	235
1508	1486	239
1494	1491	244
1487	1483	248
1496	1489	253
1498	1475	258
1495	1499	263
1483	1514	267
1478	1496	272
1489	1477	276
1493	1471	281
1506	1541	285
1519	1514	290
1517	1535	294
1509	1498	300
1498	1487	304
1493	1480	309
1497	1480	313
1507	1491	318
1509	1528	323
1513	1503	327
1517	1489	332
1513	1486	336
1505	1473	342
1507	1465	346
1516	1474	351
1517	1480	355
1504	1514	360
1494	1526	364
1501	1528	369
1506	1517	373
1508	1487	378
1495	1479	382
1495	1494	388
1505	1468	392
1515	1466	397
1516	1457	402
1510	1463	406
1504	1533	411
1500	1487	415
1507	1492	420
1522	1525	424
1533	1511	430
1536	1499	434
1533	1502	439
1538	1485	443
1540	1472	448
1539	1457	452
1538	1446	457
1544	1447	461
1548	1455	466
1542	1466	471
1533	1468	476
1535	1460	481
1547	1490	485
1550	1496	490
1554	1485	494
1554	1479	499
1548	1521	503
1536	1472	508
1530	1479	513
1526	1483	518
1528	1483	522
1518	1485	527
1493	1493	531
1497	1498	536
1521	1504	540
1553	1531	545
1584	1519	549
1598	1510	555
1595	1483	560
1604	1452	564
1611	1436	569
1615	1433	573
1618	1452	578
1605	1501	582
1584	1466	587
1572	1454	591
1567	1446	596
1568	1439	601
1564	1496	606
1558	1546	610
1542	1498	615
1517	1482	619
1502	1467	624
1501	1451	628
1510	1450	633
1522	1541	638
1526	1537	643
1509	1505	648
1487	1474	652
1476	1463	657
1477	1451	661
1489	1449	666
1501	1535	670
1499	1514	675
1482	1499	679
1472	1485	685
1473	1469	689
1475	1460	694
1476	1514	698
1481	1534	703
1477	1568	707
1464	1513	712
1454	1497	717
1449	1478	721
1451	1469	727
1459	1508	731
1473	1541	736
1468	1518	740
1453	1517	745
1452	1485	749
1466	1487	754
1467	1521	758
1469	1588	763
1465	1621	768
1461	1569	773
1456	1569	777
1449	1576	782
1458	1587	786
1462	1648	791
1473	1606	796
1478	1568	800
1468	1583	805
1458	1555	809
1451	1642	815
1457	1582	819
1466	1597	824
1470	1633	828
1461	1674	833
1452	1638	837
1461	1555	842
1475	1533	846
1484	1536	851
1486	1523	856
1481	1502	861
1486	1493	865
1503	1473	870
1516	1499	875
1522	1540	879
1515	1535	884
1510	1514	888
1515	1489	893
1516	1463	898
1529	1519	903
1532	1599	907
1525	1550	912
1509	1505	916
1496	1469	921
1488	1466	925
1469	1456	930
1453	1454	934
1458	1452	940
1484	1444	944
1494	1441	949
1483	1440	954
1467	1450	958
1458	1442	963
1466	1439	967
1481	1441	972
1482	1452	976
1459	1438	982
1442	1432	986
1431	1463	991
1435	1448	995
1453	1459	1000
1454	1468	1004
1429	1474	1009
1411	1449	1014
1410	1437	1018
1412	1412	1024
1416	1426	1028
1415	1425	1033
1418	1433	1037
1415	1422	1042
1431	1416	1047
1435	1413	1051
1440	1479	1056
1452	1420	1060
1459	1411	1065
1455	1443	1070
1456	1424	1075
1465	1401	1080
1471	1408	1084
1473	1478	1089
1455	1477	1093
1441	1480	1098
1453	1435	1103
1468	1412	1107
1475	1406	1113
1486	1420	1117
1491	1462	1122
1475	1440	1126
1457	1421	1131
1460	1418	1136
1466	1425	1140
1470	1452	1145
1467	1485	1149
1462	1461	1155
1464	1464	1159
1473	1433	1164
1489	1418	1169
1500	1429	1173
1514	1458	1178
1530	1499	1182
1539	1483	1187
1543	1532	1192
1548	1472	1197
1562	1458	1202
1565	1463	1206
1553	1440	1211
1530	1454	1215
1527	1493	1220
1532	1468	1225
1536	1444	1229
1530	1504	1234
1514	1468	1239
1504	1507	1244
1499	1494	1248
1499	1523	1253
1490	1516	1258
1466	1514	1262
1445	1504	1267
1464	1472	1271
1489	1469	1276
1495	1473	1282
1458	1480	1286
1433	1479	1291
1426	1520	1295
1431	1518	1300
1438	1507	1304
1437	1525	1309
1434	1505	1314
1422	1506	1318
1422	1509	1324
1421	1554	1328
1423	1525	1333
1422	1533	1337
1415	1494	1342
1415	1507	1347
1423	1484	1351
1427	1473	1356
1422	1539	1360
1419	1560	1366
1415	1606	1371
1414	1636	1375
1412	1520	1380
1413	1488	1384
1421	1469	1389
1435	1474	1393
1429	1462	1398
1409	1467	1403
1387	1447	1408
1380	1443	1413
1379	1485	1417
1383	1524	1422
1349	1612	1426
1293	1560	1431
1312	1520	1436
1366	1529	1440
1433	1498	1445
1489	1525	1449
1524	1510	1455
1515	1495	1460
1498	1511	1464
1478	1517	1469
1452	1487	1473
1436	1462	1478
1418	1448	1482
1388	1503	1487
1380	1561	1492
1385	1578	1497
1376	1532	1502
1389	1478	1506
1413	1451	1511
1423	1450	1516
1417	1523	1520
1421	1524	1525
1453	1486	1529
1476	1483	1534
1502	1478	1539
1505	1526	1544
1500	1635	1549
1449	1606	1553
1443	1543	1558
1460	1599	1562
1442	1513	1567
1444	1468	1571
1453	1451	1576
1460	1491	1582
1449	1532	1586
1434	1501	1591
1409	1493	1595
1386	1462	1600
1372	1454	1605
1388	1473	1609
1449	1591	1614
1489	1540	1618
1552	1507	1624
1583	1465	1628
1573	1446	1633
1539	1446	1638
1499	1488	1642
1465	1516	1647
1444	1549	1651
1409	1519	1656
1381	1487	1660
1388	1473	1666
1404	1492	1671
1416	1530	1675
1479	1473	1680
1512	1467	1684
1543	1451	1689
1548	1435	1694
1518	1505	1698
1512	1513	1703
1517	1489	1708
1547	1444	1713
1569	1420	1717
1562	1438	1722
1544	1519	1727
1510	1484	1731
1488	1466	1736
1452	1450	1740
1428	1432	1745
1419	1441	1750
1413	1478	1755
1431	1536	1760
1487	1480	1764
1530	1474	1769
1553	1440	1773
1567	1422	1778
1583	1473	1783
1572	1521	1787
1566	1546	1793
1558	1477	1797
1545	1451	1802
1544	1431	1806
1548	1435	1811
1553	1468	1816
1528	1534	1820
1551	1504	1825
1550	1466	1829
1518	1451	1835
1517	1441	1839
1501	1466	1844
1489	1561	1849
1517	1487	1853
1559	1462	1858
1571	1452	1862
1560	1436	1867
1553	1449	1872
1528	1517	1876
1488	1545	1882
1474	1478	1886
1455	1458	1891
1440	1442	1895
1446	1434	1900
1446	1438	1905
1492	1498	1909
1529	1584	1914
1538	1515	1918
1544	1492	1924
1545	1481	1928
1531	1450	1933
1515	1521	1938
1486	1610	1942
1483	1497	1947
1487	1461	1951
1488	1439	1956
1489	1423	1961
1483	1419	1966
1472	1430	1971
1475	1475	1975
1524	1485	1980
1542	1482	1984
1559	1479	1989
1561	1488	1994
1549	1576	1998
1530	1582	2003
1538	1626	2008
1539	1545	2013
1534	1543	2017
1528	1541	2022
1514	1532	2027
1462	1538	2031
1464	1499	2036
1501	1478	2040
1527	1472	2045
1528	1472	2051
1518	1470	2055
1535	1496	2060
1524	1558	2064
1526	1638	2069
1503	1578	2073
1509	1536	2078
1527	1510	2083
1556	1499	2087
1579	1527	2093
1583	1569	2097
1546	1545	2102
1543	1519	2106
1559	1504	2111
1546	1503	2116
1522	1539	2120
1494	1636	2125
1462	1644	2129
1462	1591	2135
1477	1556	2140
1487	1527	2144
1494	1515	2149
1490	1518	2153
1494	1540	2158
1506	1571	2162
1520	1562	2167
1551	1566	2172
1544	1604	2177
1506	1704	2182
1499	1713	2186
1499	1654	2191
1498	1594	2195
1488	1568	2200
1483	1559	2205
1476	1560	2209
1463	1585	2214
1441	1606	2219
1452	1608	2224
1504	1610	2229
1521	1617	2233
1492	1632	2238
1447	1687	2242
1494	1697	2247
1564	1723	2251
1585	1726	2256
1571	1663	2262
1540	1648	2266
1516	1644	2271
1481	1685	2275
1482	1671	2280
1507	1712	2285
1518	1701	2289
1493	1700	2294
1466	1769	2298
1518	1879	2304
1519	1808	2308
1509	1755	2313
1518	1726	2318
1528	1718	2322
1508	1714	2327
1483	1718	2331
1476	1729	2336
1505	1744	2340
1508	1745	2345
1518	1740	2351
1532	1766	2355
1513	1759	2360
1499	1774	2364
1497	1833	2369
1540	1875	2374
1576	1881	2378
1580	1845	2383
1569	1841	2387
1575	1842	2393
1591	1903	2397
1601	1959	2402
1582	1890	2407
1538	1882	2411
1493	1883	2416
1476	1893	2420
1497	1922	2425
1513	1961	2429
1499	1939	2435
1480	1935	2440
1495	1940	2444
1509	1946	2449
1544	1963	2453
1593	2042	2458
1585	2047	2463
1561	2032	2467
1533	2017	2472
1500	2015	2477
1491	2030	2482
1505	2047	2486
1489	2047	2491
1481	2047	2496
1516	2047	2500
1529	2047	2505
1489	2047	2509
1430	2047	2514
1407	2047	2519
1431	2047	2524
1480	2047	2529
1515	2047	2533
1526	2047	2538
1548	2047	2542
1543	2047	2547
1517	2047	2552
1521	2047	2556
1519	2047	2562
1492	2047	2566
1485	2047	2571
1485	2047	2575
1521	2047	2580
1548	2047	2585
1550	2047	2589
1544	2047	2594
1547	2047	2598
1558	2047	2604
1560	2047	2609
1547	2047	2613
1515	2047	2618
1499	2047	2622
1500	2047	2627
1501	2047	2631
1500	2047	2636
1510	2047	2641
1522	2047	2646
1521	2047	2651
1533	2047	2655
1528	2047	2660
1531	2047	2664
1533	2047	2669
1533	2047	2674
1527	2047	2678
1526	2047	2683
1540	2047	2688
1518	2047	2693
1493	2047	2698
1470	2047	2702
1456	2047	2707
1489	2047	2711
1538	2047	2716
1569	2047	2720
1598	2047	2725
1590	2047	2731
1563	2047	2735
1520	2047	2740
1492	2047	2744
1473	2047	2749
1453	2047	2753
1437	2047	2758
1454	2027	2763
1489	1996	2767
1505	1992	2772
1485	2020	2777
1493	1969	2782
1520	1950	2787
1523	1933	2791
1507	1924	2796
1444	1948	2800
1424	1982	2805
1441	1997	2809
1444	2031	2814
1459	2047	2820
1490	1948	2824
1528	1922	2829
1522	1989	2833
1468	1911	2838
1470	1876	2842
1503	1870	2847
1562	1831	2852
1546	1774	2856
1517	1798	2862
1498	1843	2866
1459	1794	2871
1478	1705	2876
1543	1659	2880
1572	1647	2885
1557	1753	2889
1515	1763	2894
1487	1648	2898
1475	1614	2904
1450	1594	2909
1461	1609	2913
1436	1598	2918
1406	1725	2922
1452	1574	2927
1493	1529	2932
1518	1455	2936
1571	1428	2941
1551	1377	2946
1555	1354	2951
1594	1344	2955
1623	1516	2960
1589	1626	2965
1543	1435	2969
1479	1303	2974
1422	1240	2978
1458	1207	2983
1489	1209	2988
1476	1283	2993
1522	1317	2998
1497	1380	3002
1397	1263	3007
1429	1268	3011
1533	1181	3016
1572	1078	3021
1510	1135	3025
1453	1119	3031
1425	1221	3035
1415	1070	3040
1403	984	3044
1388	926	3049
1444	928	3053
1490	1055	3058
1416	932	3063
1355	980	3067
1390	949	3073
1449	929	3077
1476	797	3082
1500	746	3086
1468	655	3091
1458	560	3095
1495	561	3100
1520	562	3104
1480	571	3109
1404	482	3113
1325	402	3119
1406	341	3123
1508	320	3128
1527	467	3132
1481	563	3137
1429	449	3142
1384	421	3146
1415	361	3151
1515	289	3155
1518	335	3161
1487	313	3165
1470	374	3170
1423	241	3174
1364	197	3179
1405	163	3183
1504	254	3188
1514	266	3192
1469	312	3197
1467	198	3202
1500	190	3207
1476	225	3211
1431	292	3216
1461	160	3221
1522	186	3225
1591	193	3230
1593	217	3234
1537	343	3239
1462	368	3244
1478	291	3249
1564	218	3253
1615	288	3258
1571	326	3262
1476	312	3267
1401	332	3271
1418	285	3276
1494	292	3280
1512	324	3286
1517	358	3290
1524	365	3295
1575	334	3299
1536	365	3304
1475	437	3309
1467	444	3313
1482	565	3318
1529	525	3322
1554	537	3328
1513	537	3332
1491	603	3337
1496	517	3341
1544	555	3346
1563	574	3350
1562	610	3355
1505	572	3359
1470	629	3364
1452	675	3368
1452	685	3374
1443	751	3378
1426	702	3383
1436	761	3388
1453	717	3392
1482	733	3397
1507	789	3401
1596	867	3406
1612	911	3410
1582	888	3416
1548	938	3420
1567	896	3425
1552	841	3429
1489	863	3434
1445	931	3438
1445	1029	3443
1438	963	3447
1476	922	3452
1504	937	3458
1494	1036	3462
1488	1045	3467
1515	1014	3471
1520	1023	3476
1549	1063	3480
1619	1106	3485
1655	1207	3490
1578	1215	3494
1466	1191	3500
1489	1223	3504
1489	1229	3509
1462	1189	3513
1440	1214	3518
1440	1199	3523
1447	1232	3527
1465	1214	3532
1481	1226	3536
1506	1334	3542
1530	1298	3547
1538	1236	3551
1589	1225	3556
1638	1317	3560
1622	1311	3565
1577	1338	3569
1531	1296	3574
1504	1258	3579
1501	1269	3584
1508	1258	3589
1505	1304	3593
1488	1329	3598
1493	1355	3602
1497	1324	3607
1519	1347	3612
1601	1424	3616
1618	1372	3621
1556	1385	3625
1477	1359	3631
1473	1335	3636
1495	1324	3640
1508	1336	3645
1497	1376	3649
1489	1448	3654
1486	1372	3658
1481	1363	3663
1479	1367	3668
1480	1443	3673
1480	1391	3678
1480	1383	3682
1466	1384	3687
1471	1370	3692
1482	1438	3696
1511	1404	3701
1545	1410	3705
1545	1411	3710
1509	1407	3715
1503	1390	3720
1512	1386	3725
1518	1399	3729
1515	1397	3734
1504	1399	3738
1497	1403	3743
1491	1417	3747
1491	1478	3752
1494	1460	3758
1499	1455	3762
1503	1426	3767
1498	1437	3771
1492	1434	3776
1516	1430	3781
1545	1435	3785
1568	1438	3790
1545	1435	3794
1534	1456	3800
1529	1534	3804
1511	1479	3809
1503	1462	3814
1525	1464	3818
1552	1459	3823
1550	1483	3827
1535	1482	3832
1521	1497	3836
1505	1493	3842
1506	1490	3847
1503	1491	3851
1506	1482	3856
1517	1481	3860
1537	1516	3865
1547	1506	3870
1530	1502	3874
1514	1500	3879
1513	1496	3884
1518	1500	3889
1526	1528	3893
1519	1533	3898
1503	1545	3903
1501	1533	3907
1502	1517	3912
1505	1517	3916
1524	1541	3921
1515	1525	3927
1494	1530	3931
1481	1533	3936
1473	1531	3940
1488	1536	3945
1500	1544	3949
1497	1531	3954
1467	1573	3959
1439	1578	3963
1457	1560	3969
1482	1540	3973
1484	1545	3978
1473	1546	3982
1453	1591	3987
1449	1555	3992
1442	1547	3996
1456	1555	4001
1512	1583	4005
1525	1589	4011
1501	1576	4016
1458	1565	4020
1461	1565	4025
1456	1553	4029
1449	1559	4034
1465	1573	4038
1471	1563	4043
1462	1552	4048
1458	1546	4052
1450	1546	4058
1450	1550	4062
1454	1562	4067
1452	1613	4071
1452	1593	4076
1449	1603	4081
1433	1588	4085
1438	1591	4090
1436	1619	4094
1434	1595	4100
1405	1598	4105
1392	1578	4109
1394	1565	4114
1416	1571	4118
1432	1608	4123
1425	1594	4127
1411	1613	4132
1407	1585	4137
1400	1583	4142
1412	1664	4147
1426	1706	4151
1455	1642	4156
1450	1602	4161
1431	1590	4165
1400	1579	4170
1391	1615	4174
1365	1600	4179
1341	1611	4184
1315	1606	4189
1325	1604	4194
1322	1616	4198
1303	1588	4203
1313	1623	4207
1314	1590	4212
1321	1572	4216
1333	1552	4221
1349	1546	4227
1375	1588	4231
1380	1642	4236
1383	1639	4240
1389	1594	4245
1368	1590	4250
1332	1565	4254
1311	1570	4259
1323	1605	4263
1307	1619	4269
1282	1591	4273
1274	1577	4278
1278	1565	4283
1299	1551	4287
1285	1604	4292
1253	1705	4296
1260	1607	4301
1282	1577	4305
1283	1558	4311
1282	1546	4316
1278	1539	4320
1311	1570	4325
1357	1616	4329
1362	1587	4334
1330	1572	4339
1306	1563	4343
1289	1568	4348
1261	1666	4353
1294	1685	4358
1353	1591	4362
1360	1560	4367
1343	1543	4372
1328	1540	4376
1341	1589	4381
1322	1603	4385
1296	1542	4390
1276	1528	4395
1276	1530	4400
1291	1552	4405
1322	1625	4409
1341	1617	4414
1353	1587	4418
1382	1573	4423
1336	1571	4428
1297	1568	4432
1311	1556	4438
1333	1550	4442
1370	1630	4447
1369	1734	4451
1375	1586	4456
1391	1539	4461
1405	1516	4465
1470	1556	4470
1478	1583	4474
1436	1580	4480
1393	1543	4484
1385	1541	4489
1353	1561	4494
1328	1592	4498
1298	1646	4503
1323	1576	4507
1391	1541	4512
1432	1520	4517
1457	1506	4521
1520	1560	4527
1523	1554	4531
1504	1515	4536
1501	1507	4540
1512	1535	4545
1481	1619	4550
1458	1626	4554
1487	1662	4559
1500	1598	4563
1522	1550	4569
1572	1528	4573
1595	1511	4578
1621	1513	4583
1594	1537	4587
1579	1515	4592
1590	1499	4596
1622	1498	4601
1671	1492	4606
1689	1543	4611
1655	1590	4616
1714	1655	4620
1758	1575	4625
1793	1540	4629
1781	1518	4634
1768	1516	4639
1816	1606	4643
1826	1687	4648
1821	1618	4653
1816	1545	4658
1816	1501	4663
1820	1491	4667
1821	1490	4672
1860	1507	4676
1883	1504	4681
1910	1507	4685
1939	1528	4690
1946	1534	4696
2014	1523	4700
2047	1534	4705
2047	1660	4709
2047	1643	4714
2047	1545	4718
2047	1506	4723
2047	1489	4728
2047	1504	4732
2047	1622	4738
2047	1574	4742
2047	1547	4747
2047	1536	4752
2047	1546	4756
2047	1576	4761
2047	1622	4765
2047	1582	4770
2047	1563	4774
2047	1559	4780
2047	1537	4785
2047	1526	4789
2047	1525	4794
2047	1577	4798
2047	1660	4803
2047	1579	4807
2047	1571	4812
2047	1565	4817
2047	1562	4822
2047	1622	4827
2047	1744	4831
2047	1689	4836
2047	1641	4841
2047	1609	4845
2047	1600	4850
2047	1599	4854
2047	1645	4859
2047	1671	4864
2047	1652	4869
2047	1643	4874
2047	1639	4878
2047	1699	4883
2047	1720	4887
2047	1746	4892
2047	1703	4896
2047	1704	4901
2047	1687	4907
2047	1685	4911
2047	1681	4916
2047	1683	4920
2047	1772	4925
2047	1747	4930
2047	1705	4934
2047	1686	4939
2047	1679	4943
2047	1678	4948
2047	1738	4953
2047	1762	4958
2047	1711	4963
2047	1683	4967
2047	1676	4972
2047	1690	4976
2047	1732	4981
2047	1739	4985
2047	1715	4990
2047	1692	4996
2047	1688	5000
2047	1695	5005
2047	1725	5009
2047	1720	5014
2047	1719	5019
2047	1776	5023
2047	1806	5028
2047	1745	5032
2047	1726	5038
2047	1725	5042
2047	1831	5047
2047	1834	5052
2047	1747	5056
2047	1729	5061
2047	1720	5065
2047	1719	5070
2047	1742	5074
2047	1750	5080
2047	1755	5085
2047	1752	5089
2047	1772	5094
2047	1785	5098
2047	1805	5103
2047	1798	5108
2047	1797	5112
2047	1823	5117
2047	1836	5122
2047	1856	5127
2047	1859	5131
2047	1826	5136
2047	1826	5141
2047	1870	5145
2047	1928	5150
2047	1908	5154
2047	1887	5159
2047	1907	5165
2047	1926	5169
2047	1953	5174
2047	1948	5178
2047	1928	5183
2047	1938	5187
2047	1934	5192
2047	1939	5197
2047	1946	5201
2047	1969	5207
2034	2007	5211
2047	1984	5216
2047	1970	5220
2047	1972	5225
2047	2009	5230
2047	2047	5234
2047	2031	5239
2025	2047	5243
1965	2046	5249
1904	2046	5254
1889	2045	5258
1863	2047	5263
1859	2047	5267
1851	2047	5272
1883	2047	5276
1895	2047	5281
1913	2032	5286
1889	2045	5291
1808	2047	5296
1781	2047	5300
1779	2006	5305
1786	1980	5309
1783	1968	5314
1759	2015	5319
1711	2015	5323
1661	2002	5328
1651	1972	5332
1672	1935	5338
1658	1912	5343
1622	1912	5347
1611	1913	5352
1615	1907	5356
1599	1899	5361
1576	1851	5365
1571	1820	5370
1566	1800	5376
1547	1791	5380
1519	1841	5385
1485	1859	5389
1457	1771	5394
1468	1744	5399
1473	1723	5403
1464	1710	5408
1422	1712	5412
1398	1749	5417
1366	1731	5422
1375	1670	5427
1410	1645	5432
1417	1614	5436
1401	1582	5441
1386	1579	5445
1338	1594	5450
1363	1521	5454
1371	1453	5459
1349	1395	5465
1336	1350	5469
1323	1341	5474
1277	1307	5478
1294	1251	5483
1330	1216	5488
1355	1178	5492
1355	1151	5497
1325	1137	5501
1267	1151	5507
1251	1156	5511
1269	1112	5516
1257	1061	5521
1249	1044	5525
1285	1027	5530
1290	1008	5534
1251	972	5539
1221	952	5543
1226	929	5549
1274	914	5553
1310	911	5558
1274	948	5563
1191	941	5567
1169	885	5572
1197	870	5576
1227	863	5581
1271	906	5585
1254	950	5591
1193	974	5595
1160	881	5600
1166	869	5604
1176	869	5609
1186	868	5613
1188	898	5618
1194	866	5622
1241	893	5627
1226	925	5632
1199	904	5637
1198	881	5642
1176	876	5646
1148	872	5651
1141	904	5655
1121	968	5660
1104	969	5664
1134	918	5669
1164	914	5673
1180	932	5679
1155	964	5683
1143	1022	5688
1127	980	5692
1122	948	5697
1120	935	5701
1125	930	5706
1119	952	5710
1107	984	5715
1090	960	5721
1126	950	5725
1171	945	5730
1185	967	5734
1193	1009	5739
1215	1029	5743
1217	1007	5748
1198	1002	5752
1175	1047	5757
1126	1104	5763
1064	1096	5767
1086	1058	5772
1121	1037	5776
1139	1036	5781
1138	1040	5785
1109	1053	5790
1094	1077	5795
1108	1088	5799
1144	1099	5805
1178	1110	5809
1232	1139	5814
1296	1140	5819
1237	1172	5823
1126	1204	5828
1084	1170	5832
1069	1167	5837
1067	1191	5841
1070	1226	5847
1053	1229	5852
1109	1197	5856
1169	1199	5861
1192	1206	5865
1212	1222	5870
1242	1290	5874
1206	1264	5879
1201	1247	5884
1205	1247	5889
1215	1249	5894
1237	1297	5898
1211	1387	5903
1152	1353	5908
1121	1326	5912
1120	1303	5917
1138	1302	5921
1150	1371	5926
1110	1482	5931
1066	1462	5936
1102	1370	5941
1137	1362	5945
1151	1397	5950
1131	1467	5954
1126	1404	5959
1216	1426	5963
1225	1477	5968
1192	1492	5974
1117	1468	5978
1105	1467	5983
1164	1386	5987
1219	1384	5992
1231	1438	5997
1161	1450	6001
1098	1486	6006
1085	1558	6010
1076	1497	6016
1137	1379	6020
1161	1323	6025
1165	1322	6030
1142	1462	6034
1147	1423	6039
1184	1277	6043
1190	1259	6048
1200	1243	6053
1225	1239	6057
1188	1258	6063
1165	1274	6067
1196	1330	6072
1268	1271	6076
1296	1217	6081
1260	1246	6086
1197	1391	6090
1124	1354	6095
1089	1279	6099
1095	1286	6105
1168	1329	6109
1170	1369	6114
1107	1241	6119
1120	1197	6123
1149	1135	6128
1144	1193	6132
1127	1316	6137
1127	1242	6142
1176	1164	6147
1178	1270	6152
1155	1428	6156
1119	1458	6161
1185	1436	6165
1244	1403	6170
1245	1315	6175
1190	1341	6179
1172	1412	6184
1213	1339	6189
1277	1267	6194
1206	1220	6198
1087	1180	6203
1175	1256	6208
1279	1276	6212
1239	1241	6217
1162	1206	6221
1172	1153	6226
1263	1192	6232
1307	1116	6236
1245	1210	6241
1178	1117	6245
1140	1151	6250
1139	1088	6254
1202	1077	6259
1219	1141	6264
1252	1311	6268
1214	1259	6274
1181	1137	6278
1134	1179	6283
1093	1317	6288
1162	1208	6292
1226	1253	6297
1208	1300	6301
1204	1220	6306
1213	1082	6310
1247	1034	6316
1294	1042	6321
1301	1120	6325
1254	1102	6330
1217	1059	6334
1202	1153	6339
1186	1119	6343
1203	1079	6348
1173	1178	6353
1149	1239	6358
1210	1203	6363
1245	1267	6367
1239	1135	6372
1256	1052	6377
1238	1123	6381
1241	1146	6386
1275	1147	6390
1293	1146	6395
1269	1102	6400
1236	1084	6405
1157	1161	6410
1110	1213	6414
1202	1152	6419
1269	1166	6423
1264	1183	6428
1273	1132	6433
1260	1052	6437
1235	1095	6443
1229	1166	6447
1221	1199	6452
1216	1115	6456
1277	1144	6461
1303	1120	6466
1338	1215	6470
1363	1260	6475
1321	1151	6479
1275	1183	6484
1306	1162	6489
1342	1112	6494
1290	1282	6499
1274	1304	6503
1247	1227	6508
1215	1195	6512
1152	1150	6517
1130	1222	6522
1179	1168	6526
1219	1247	6532
1287	1284	6536
1334	1257	6541
1305	1207	6545
1246	1224	6550
1238	1262	6555
1245	1341	6559
1243	1304	6564
1226	1258	6568
1182	1270	6574
1173	1325	6578
1250	1436	6583
1270	1338	6588
1246	1404	6592
1222	1404	6597
1216	1365	6601
1275	1304	6606
1346	1312	6611
1319	1456	6616
1202	1374	6621
1146	1414	6625
1124	1353	6630
1150	1355	6634
1204	1363	6639
1217	1493	6644
1210	1474	6648
1210	1490	6653
1214	1444	6658
1216	1536	6663
1210	1489	6668
1236	1449	6672
1286	1441	6677
1338	1472	6681
1345	1465	6686
1319	1465	6690
1278	1433	6695
1267	1547	6701
1264	1497	6705
1253	1469	6710
1234	1456	6714
1232	1442	6719
1236	1461	6723
1241	1480	6728
1238	1482	6733
1248	1524	6737
1263	1523	6743
1271	1581	6747
1267	1572	6752
1283	1594	6757
1301	1547	6761
1335	1517	6766
1365	1580	6770
1359	1502	6775
1329	1480	6779
1305	1481	6785
1286	1490	6790
1280	1511	6794
1283	1513	6799
1286	1538	6803
1294	1647	6808
1291	1557	6812
1278	1618	6817
1252	1561	6822
1270	1540	6827
1288	1525	6832
1312	1518	6836
1325	1524	6841
1322	1570	6846
1290	1544	6850
1275	1557	6855
1275	1529	6859
1280	1562	6864
1284	1557	6868
1278	1597	6874
1267	1550	6879
1276	1525	6883
1289	1521	6888
1305	1527	6892
1319	1533	6897
1305	1550	6902
1289	1541	6906
1285	1522	6912
1294	1513	6916
1304	1540	6921
1295	1532	6925
1287	1617	6930
1287	1549	6935
1300	1525	6939
1299	1517	6944
1305	1555	6948
1309	1605	6953
1294	1592	6958
1282	1549	6963
1268	1529	6968
1257	1515	6972
1251	1512	6977
1248	1516	6981
1253	1517	6986
1252	1541	6991
1253	1530	6995
1270	1526	7001
1288	1550	7005
1305	1632	7010
1323	1629	7014
1320	1596	7019
1328	1559	7024
1325	1544	7028
1322	1544	7033
1320	1548	7037
1315	1538	7043
1314	1632	7047
1275	1575	7052
1272	1543	7057
1255	1531	7061
1249	1521	7066
1249	1542	7070
1242	1570	7075
1225	1604	7080
1208	1576	7085
1198	1577	7090
1195	1586	7094
1213	1548	7099
1247	1621	7103
1263	1669	7108
1232	1629	7113
1228	1575	7117
1232	1545	7122
1242	1530	7127
1247	1526	7132
1240	1541	7137
1212	1594	7141
1167	1568	7146
1169	1558	7150
1181	1546	7155
1205	1559	7159
1229	1604	7164
1243	1621	7170
1241	1601	7174
1200	1576	7179
1188	1581	7183
1238	1582	7188
1269	1552	7192
1263	1556	7197
1250	1635	7202
1210	1603	7206
1202	1579	7212
1208	1566	7216
1206	1562	7221
1205	1595	7226
1197	1597	7230
1174	1593	7235
1160	1572	7239
1151	1573	7244
1171	1564	7248
1210	1583	7254
1246	1585	7259
1274	1668	7263
1249	1596	7268
1249	1559	7272
1256	1540	7277
1269	1533	7282
1268	1583	7286
1242	1637	7291
1202	1598	7296
1190	1578	7301
1236	1553	7305
1271	1540	7310
1285	1541	7315
1260	1613	7319
1230	1612	7324
1259	1579	7328
1287	1555	7333
1315	1543	7337
1366	1544	7343
1367	1631	7348
1346	1672	7352
1326	1609	7357
1320	1563	7361
1324	1543	7366
1330	1532	7371
1353	1557	7375
1349	1638	7380
1295	1629	7385
1276	1581	7390
1289	1562	7394
1304	1555	7399
1270	1553	7404
1277	1553	7408
1345	1574	7413
1380	1623	7417
1398	1624	7422
1399	1570	7427
1386	1559	7432
1402	1550	7437
1424	1602	7441
1429	1624	7446
1372	1660	7450
1353	1613	7455
1368	1587	7460
1406	1592	7464
1406	1609	7470
1412	1687	7474
1415	1621	7479
1428	1591	7483
1454	1569	7488
1469	1564	7493
1464	1622	7497
1400	1651	7502
1409	1619	7506
1465	1592	7512
1492	1581	7516
1470	1582	7521
1435	1586	7526
1409	1648	7530
1396	1604	7535
1451	1592	7539
1514	1583	7544
1546	1594	7549
1540	1678	7554
1513	1715	7559
1609	1630	7563
1666	1595	7568
1636	1578	7572
1561	1578	7577
1483	1654	7582
1462	1614	7586
1472	1594	7591
1453	1598	7596
1446	1588	7601
1503	1584	7606
1573	1607	7610
1602	1647	7615
1646	1611	7619
1651	1603	7624
1607	1586	7628
1592	1593	7633
1583	1640	7639
1548	1704	7643
1513	1666	7648
1530	1587	7652
1580	1566	7657
1649	1581	7661
1652	1567	7666
1603	1571	7671
1621	1537	7675
1637	1532	7681
1578	1540	7685
1523	1599	7690
1540	1597	7695
1573	1565	7699
1630	1558	7704
1656	1576	7708
1666	1536	7713
1676	1542	7717
1680	1646	7723
1662	1696	7728
1620	1675	7732
1579	1631	7737
1547	1599	7741
1569	1590	7746
1662	1536	7750
1725	1522	7755
1729	1510	7760
1710	1527	7764
1673	1558	7770
1667	1533	7774
1662	1524	7779
1656	1525	7784
1657	1588	7788
1634	1624	7793
1673	1576	7797
1711	1547	7802
1755	1536	7806
1790	1528	7812
1822	1541	7817
1784	1663	7821
1804	1687	7826
1810	1614	7830
1776	1565	7835
1733	1539	7840
1701	1531	7844
1704	1601	7849
1677	1667	7854
1642	1578	7859
1711	1532	7863
1741	1517	7868
1731	1514	7873
1746	1545	7877
1770	1558	7882
1851	1532	7886
1876	1528	7891
1878	1529	7896
1870	1541	7901
1845	1616	7906
1815	1679	7910
1796	1622	7915
1803	1599	7919
1784	1703	7924
1735	1628	7929
1691	1611	7933
1726	1611	7939
1782	1566	7943
1833	1541	7948
1827	1533	7952
1794	1537	7957
1774	1548	7962
1785	1572	7966
1796	1654	7971
1746	1645	7975
1763	1582	7981
1858	1604	7985
1914	1613	7990
1914	1658	7995
1904	1607	7999
1899	1595	8004
1883	1596	8008
1862	1579	8013
1853	1582	8018
1840	1693	8023
1773	1739	8028
1812	1624	8032
1869	1592	8037
1892	1584	8041
1902	1572	8046
1901	1589	8051
1915	1603	8055
1940	1602	8060
1966	1601	8065
1981	1600	8070
1928	1646	8075
1891	1658	8079
1838	1683	8084
1785	1673	8088
1793	1643	8093
1831	1630	8097
1888	1597	8102
1911	1587	8108
1912	1589	8112
1934	1607	8117
1929	1609	8121
1961	1609	8126
1959	1656	8130
1938	1660	8135
1929	1663	8140
1928	1685	8144
1956	1662	8150
1948	1740	8154
1897	1735	8159
1945	1664	8164
1982	1640	8168
1979	1627	8173
1960	1623	8177
1933	1657	8182
1916	1682	8186
1907	1780	8192
1923	1672	8197
1954	1637	8201
1946	1620	8206
1930	1618	8210
1928	1622	8215
1918	1635	8219
1921	1643	8224
1925	1643	8229
1926	1645	8233
1945	1648	8239
1972	1657	8243
1947	1680	8248
1893	1742	8253
1878	1764	8257
1886	1735	8262
1898	1709	8266
1883	1665	8271
1865	1678	8275
1833	1815	8281
1817	1775	8286
1865	1688	8290
1892	1657	8295
1889	1642	8299
1894	1639	8304
1936	1638	8308
1956	1656	8313
1942	1683	8318
1922	1721	8323
1884	1673	8328
1857	1674	8332
1839	1659	8337
1834	1679	8342
1824	1742	8346
1841	1698	8351
1903	1672	8355
1924	1653	8360
1908	1644	8365
1887	1649	8370
1851	1679	8375
1808	1702	8379
1842	1680	8384
1894	1671	8388
1915	1665	8393
1919	1667	8397
1905	1699	8402
1842	1756	8408
1811	1726	8412
1807	1714	8417
1842	1668	8421
1878	1664	8426
1884	1683	8431
1845	1711	8435
1820	1759	8440
1790	1833	8444
1771	1717	8450
1824	1687	8454
1865	1665	8459
1853	1660	8464
1805	1677	8468
1778	1708	8473
1732	1699	8477
1716	1676	8482
1743	1669	8486
1762	1666	8492
1773	1671	8497
1780	1689	8501
1801	1734	8506
1792	1726	8510
1759	1745	8515
1751	1733	8520
1760	1727	8524
1734	1759	8529
1672	1846	8534
1669	1787	8539
1736	1735	8543
1756	1703	8548
1733	1685	8553
1703	1683	8557
1674	1686	8562
1669	1689	8566
1713	1692	8571
1730	1695	8576
1715	1705	8581
1688	1687	8586
1690	1696	8590
1708	1711	8595
1640	1775	8599
1611	1824	8604
1658	1766	8609
1665	1722	8613
1674	1690	8619
1676	1676	8623
1675	1682	8628
1678	1751	8632
1669	1744	8637
1651	1712	8642
1631	1693	8646
1621	1684	8651
1628	1685	8655
1618	1688	8660
1590	1679	8666
1565	1672	8670
1568	1676	8675
1561	1720	8679
1546	1733	8684
1558	1690	8688
1586	1669	8693
1603	1654	8698
1614	1648	8702
1632	1646	8708
1655	1643	8712
1651	1671	8717
1624	1673	8721
1594	1693	8726
1577	1704	8731
1599	1699	8735
1615	1678	8740
1566	1623	8744
1534	1580	8750
1546	1564	8755
1529	1572	8759
1508	1575	8764
1550	1545	8768
1545	1543	8773
1546	1548	8777
1553	1575	8782
1509	1612	8787
1496	1564	8792
1494	1537	8797
1491	1524	8801
1479	1537	8806
1472	1588	8810
1446	1570	8815
1468	1551	8820
1505	1551	8824
1485	1602	8829
1412	1706	8834
1359	1629	8839
1404	1567	8844
1460	1516	8848
1478	1488	8853
1456	1527	8857
1381	1556	8862
1301	1599	8866
1352	1484	8871
1430	1451	8877
1460	1443	8881
1486	1477	8886
1445	1598	8890
1406	1540	8895
1442	1639	8899
1428	1672	8904
1378	1567	8909
1448	1548	8913
1462	1562	8919
1394	1432	8923
1369	1416	8928
1397	1547	8933
1405	1545	8937
1407	1508	8942
1412	1406	8946
1408	1404	8951
1443	1466	8955
1432	1606	8961
1370	1685	8966
1379	1507	8970
1396	1462	8975
1409	1393	8979
1411	1301	8984
1403	1270	8989
1390	1246	8993
1358	1243	8998
1280	1320	9003
1268	1362	9008
1373	1512	9012
1457	1320	9017
1468	1367	9022
1396	1529	9026
1320	1468	9031
1289	1363	9035
1290	1346	9040
1318	1417	9044
1262	1412	9050
1245	1299	9055
1316	1239	9059
1331	1361	9064
1268	1381	9068
1212	1469	9073
1243	1499	9078
1244	1380	9082
1215	1432	9088
1263	1443	9092
1267	1331	9097
1211	1245	9101
1096	1321	9106
1093	1235	9111
1189	1240	9115
1270	1351	9120
1176	1171	9124
1108	1209	9129
1194	1151	9134
1279	1174	9139
1304	1212	9144
1233	1219	9148
1207	1161	9153
1289	1089	9157
1307	1208	9162
1225	1170	9167
1285	1190	9171
1294	1146	9177
1218	1070	9181
1176	1077	9186
1133	933	9190
1080	947	9195
1066	1069	9200
1152	1245	9204
1272	1158	9209
1337	1030	9213
1290	1013	9219
1220	1112	9223
1177	1039	9228
1191	1057	9233
1214	1126	9237
1195	1183	9242
1189	1125	9246
1222	1146	9251
1223	1044	9255
1192	1098	9261
1148	995	9266
1183	1118	9270
1278	1004	9275
1321	1009	9279
1254	1110	9284
1216	1152	9288
1145	1103	9293
1164	1071	9298
1196	1064	9303
1213	1089	9308
1210	1058	9312
1242	1165	9317
1247	1135	9322
1273	1140	9326
1346	1214	9331
1344	1245	9335
1318	1199	9340
1250	1217	9345
1213	1081	9350
1203	1043	9355
1174	1192	9359
1132	1232	9364
1116	1095	9368
1159	1117	9373
1165	1142	9377
1196	1264	9382
1283	1277	9388
1317	1190	9392
1234	1214	9397
1182	1191	9401
1167	1154	9406
1174	1248	9411
1196	1219	9415
1248	1258	9420
1240	1249	9424
1171	1291	9430
1087	1321	9434
1105	1374	9439
1140	1245	9444
1207	1298	9448
1264	1285	9453
1208	1261	9457
1143	1327	9462
1175	1359	9467
1186	1309	9472
1169	1297	9477
1140	1355	9481
1110	1293	9486
1081	1275	9490
1077	1339	9495
1124	1397	9500
1138	1352	9504
1152	1392	9509
1144	1302	9513
1128	1325	9519
1151	1330	9523
1207	1342	9528
1216	1353	9533
1178	1369	9537
1163	1457	9542
1189	1488	9546
1173	1365	9551
1111	1327	9556
1082	1316	9561
1088	1387	9566
1115	1306	9570
1147	1355	9575
1126	1324	9579
1106	1358	9584
1105	1431	9589
1110	1341	9593
1133	1448	9598
1150	1380	9603
1157	1387	9608
1164	1333	9613
1197	1375	9617
1200	1378	9622
1174	1379	9626
1159	1340	9631
1171	1361	9635
1178	1349	9640
1216	1361	9646
1242	1528	9650
1197	1411	9655
1175	1379	9659
1180	1457	9664
1190	1413	9668
1185	1373	9673
1176	1405	9678
1167	1371	9682
1175	1356	9688
1185	1407	9692
1200	1390	9697
1205	1536	9702
1188	1473	9706
1182	1430	9711
1217	1375	9715
1230	1363	9720
1234	1375	9724
1254	1385	9730
1259	1400	9735
1224	1468	9739
1190	1461	9744
1186	1434	9748
1198	1440	9753
1207	1467	9757
1210	1456	9762
1209	1435	9767
1214	1419	9772
1221	1412	9777
1227	1455	9781
1228	1437	9786
1229	1468	9791
1220	1454	9795
1201	1468	9800
1199	1493	9804
1229	1487	9809
1247	1483	9814
1278	1458	9819
1285	1451	9824
1275	1460	9828
1256	1504	9833
1244	1516	9837
1231	1485	9842
1218	1474	9846
1212	1475	9851
1208	1494	9857
1203	1548	9861
1210	1534	9866
1225	1493	9870
1241	1579	9875
1254	1514	9880
1234	1543	9884
1218	1502	9889
1239	1472	9893
1279	1472	9899
1290	1496	9903
1287	1485	9908
1290	1497	9913
1278	1540	9917
1262	1559	9922
1249	1534	9926
1242	1574	9931
1246	1515	9936
1250	1622	9940
1226	1539	9946
1208	1535	9950
1207	1575	9955
1212	1511	9959
1211	1519	9964
1201	1529	9969
1193	1506	9973
1187	1559	9978
1176	1539	9982
1175	1510	9988
1189	1562	9992
1196	1534	9997
1208	1515	10002
1206	1567	10006
1197	1528	10011
1201	1541	10016
1195	1537	10020
1198	1515	10025
1192	1548	10030
1182	1577	10035
1159	1552	10040
1148	1528	10044
1166	1531	10049
1183	1537	10054
1200	1565	10058
1183	1618	10063
1167	1569	10067
1173	1526	10073
1197	1508	10078
1208	1547	10082
1207	1570	10087
1202	1546	10092
1202	1545	10096
1201	1550	10101
1182	1550	10105
1188	1539	10110
1205	1647	10116
1207	1626	10120
1216	1627	10125
1213	1584	10130
1204	1530	10134
1219	1516	10139
1233	1551	10144
1232	1556	10148
1224	1544	10153
1224	1538	10158
1238	1534	10163
1243	1556	10168
1250	1612	10172
1252	1582	10177
1237	1601	10182
1249	1553	10186
1253	1537	10191
1239	1560	10195
1243	1593	10201
1263	1545	10206
1261	1628	10210
1238	1601	10215
1221	1538	10220
1251	1524	10224
1279	1525	10229
1291	1517	10234
1301	1521	10238
1296	1524	10244
1294	1529	10248
1289	1566	10253
1285	1577	10258
1284	1576	10262
1280	1577	10267
1275	1580	10272
1251	1564	10276
1251	1539	10281
1242	1538	10286
1266	1522	10291
1284	1517	10296
1305	1530	10300
1316	1650	10305
1314	1559	10310
1331	1524	10314
1335	1499	10319
1338	1497	10323
1338	1508	10329
1335	1554	10334
1339	1521	10338
1340	1606	10343
1342	1568	10348
1341	1564	10352
1347	1526	10357
1346	1517	10361
1334	1546	10366
1343	1528	10372
1359	1525	10376
1373	1565	10381
1394	1560	10386
1397	1531	10390
1401	1536	10395
1406	1614	10400
1398	1536	10404
1386	1544	10409
1373	1548	10414
1363	1539	10419
1345	1537	10424
1353	1555	10428
1386	1520	10433
1418	1532	10438
1442	1517	10442
1457	1510	10447
1459	1555	10451
1460	1530	10457
1472	1592	10462
1492	1533	10466
1512	1562	10471
1503	1548	10476
1489	1525	10480
1471	1520	10485
1478	1558	10489
1483	1541	10494
1484	1547	10500
1485	1536	10504
1483	1560	10509
1480	1525	10514
1477	1635	10518
1473	1554	10523
1478	1529	10528
1477	1519	10532
1468	1498	10537
1460	1492	10542
1443	1528	10547
1453	1521	10552
1468	1497	10556
1484	1616	10561
1486	1578	10566
1477	1557	10570
1471	1553	10575
1480	1512	10579
1497	1485	10585
1503	1497	10590
1500	1556	10594
1499	1505	10599
1495	1498	10604
1500	1504	10608
1507	1503	10613
1518	1605	10617
1522	1558	10622
1518	1506	10628
1518	1494	10632
1526	1476	10637
1534	1512	10642
1541	1530	10646
1542	1488	10651
1545	1469	10656
1550	1467	10660
1563	1472	10665
1572	1506	10670
1578	1504	10675
1568	1586	10680
1564	1532	10684
1573	1502	10689
1585	1505	10694
1601	1497	10698
1615	1505	10703
1627	1555	10707
1630	1511	10713
1633	1491	10718
1639	1532	10722
1647	1500	10727
1656	1471	10732
1662	1479	10736
1664	1481	10741
1664	1516	10745
1672	1485	10750
1679	1507	10756
1682	1524	10760
1689	1478	10765
1692	1470	10770
1692	1497	10774
1690	1484	10779
1687	1495	10784
1691	1574	10788
1695	1538	10793
1700	1497	10798
1716	1507	10803
1726	1524	10808
1739	1513	10812
1744	1504	10817
1744	1488	10822
1743	1487	10826
1739	1480	10831
1734	1490	10835
1733	1506	10841
1732	1479	10846
1731	1461	10850
1734	1479	10855
1737	1485	10860
1743	1521	10864
1749	1502	10869
1755	1507	10873
1757	1481	10878
1764	1479	10884
1776	1502	10888
1788	1537	10893
1789	1476	10898
1794	1459	10902
1805	1474	10907
1812	1486	10912
1819	1485	10916
1829	1485	10921
1835	1513	10926
1839	1491	10931
1845	1486	10936
1851	1468	10940
1857	1474	10945
1862	1510	10950
1865	1490	10954
1871	1480	10959
1874	1478	10963
1877	1483	10969
1881	1550	10974
1881	1498	10978
1878	1565	10983
1858	1523	10988
1855	1489	10992
1864	1567	10997
1872	1481	11001
1886	1534	11006
1898	1472	11012
1910	1449	11016
1927	1438	11021
1942	1447	11026
1957	1448	11030
1973	1472	11035
1980	1481	11040
1983	1484	11044
1979	1488	11049
1975	1490	11054
1971	1500	11059
1964	1508	11064
1959	1528	11068
1954	1493	11073
1947	1473	11078
1942	1488	11082
1940	1483	11087
1944	1484	11091
1947	1485	11097
1942	1492	11102
1933	1486	11106
1923	1481	11111
1918	1473	11116
1916	1512	11120
1913	1533	11125
1910	1504	11129
1907	1494	11134
1905	1473	11140
1903	1469	11144
1901	1457	11149
1901	1454	11154
1900	1464	11158
1897	1515	11163
1893	1497	11168
1893	1507	11172
1894	1465	11177
1895	1464	11182
1900	1439	11187
1916	1431	11192
1922	1434	11196
1914	1435	11201
1908	1432	11206
1900	1446	11210
1894	1437	11215
1892	1437	11219
1889	1459	11225
1886	1452	11230
1886	1448	11234
1888	1453	11239
1891	1441	11244
1892	1502	11248
1891	1455	11253
1891	1449	11257
1892	1442	11262
1894	1430	11268
1896	1422	11272
1901	1438	11277
1906	1428	11282
1907	1439	11286
