1558	1409	4
1560	1397	9
1568	1386	13
1574	1381	18
1582	1431	22
1570	1428	27
1555	1435	31
1545	1406	36
1539	1390	40
1534	1383	45
1527	1404	50
1517	1446	54
1502	1443	59
1498	1432	63
1496	1411	68
1492	1403	72
1487	1401	77
1488	1414	81
1487	1513	87
1494	1445	91
1487	1431	96
1472	1422	100
1473	1416	105
1485	1455	109
1475	1522	114
1470	1481	118
1464	1493	123
1457	1455	128
1455	1436	133
1468	1435	137
1469	1437	142
1464	1425	146
1467	1418	151
1465	1414	156
1471	1412	160
1477	1424	165
1475	1470	169
1467	1484	175
1461	1484	179
1448	1479	184
1453	1466	188
1464	1463	193
1504	1562	197
1526	1514	202
1527	1491	206
1501	1477	211
1474	1467	216
1477	1456	221
1499	1519	225
1512	1522	230
1493	1508	235
1469	1481	239
1448	1459	244
1463	1447	248
1472	1464	253
1472	1492	258
1443	1537	263
1455	1490	267
1482	1464	272
1498	1449	276
1544	1502	281
1598	1604	285
1593	1601	290
1571	1577	294
1538	1532	300
1522	1492	304
1525	1490	309
1584	1536	314
1611	1541	318
1552	1520	323
1490	1485	327
1491	1457	332
1515	1446	336
1519	1459	342
1521	1527	346
1523	1567	351
1527	1526	355
1517	1491	360
1508	1479	364
1513	1603	369
1547	1623	373
1622	1566	378
1626	1524	382
1583	1531	388
1556	1611	392
1562	1573	397
1534	1542	402
1530	1501	406
1524	1480	411
1511	1516	415
1487	1508	420
1468	1504	424
1458	1505	430
1500	1479	434
1576	1466	439
1592	1487	443
1575	1538	448
1586	1562	452
1602	1621	457
1587	1562	461
1564	1531	466
1531	1503	471
1529	1587	476
1551	1579	481
1578	1571	485
1574	1515	490
1540	1481	494
1525	1459	499
1490	1451	503
1475	1530	508
1471	1540	513
1465	1640	518
1452	1593	522
1476	1547	527
1521	1559	531
1555	1666	536
1549	1702	540
1547	1632	545
1577	1599	549
1581	1584	555
1626	1600	560
1658	1693	564
1641	1735	569
1570	1729	573
1532	1595	578
1511	1528	582
1481	1481	587
1459	1473	591
1450	1576	596
1432	1609	601
1406	1564	606
1407	1528	610
1417	1483	615
1467	1462	619
1514	1513	624
1559	1604	628
1590	1534	633
1593	1481	638
1578	1450	643
1552	1466	648
1512	1706	652
1471	1791	657
1473	1658	661
1481	1570	666
1485	1525	670
1515	1480	675
1545	1449	679
1546	1481	685
1574	1501	689
1641	1577	694
1677	1510	698
1654	1461	703
1618	1447	707
1598	1486	712
1587	1698	717
1585	1656	721
1594	1545	727
1607	1500	731
1610	1474	736
1608	1487	740
1626	1589	745
1642	1596	749
1648	1567	754
1645	1540	758
1644	1509	763
1638	1502	768
1605	1610	773
1571	1760	777
1567	1662	782
1578	1640	786
1608	1615	791
1639	1568	796
1663	1556	800
1673	1583	805
1693	1637	809
1738	1604	815
1745	1593	819
1717	1591	824
1693	1591	828
1671	1622	833
1662	1700	837
1659	1734	842
1672	1753	846
1673	1749	851
1667	1711	856
1647	1711	861
1624	1750	865
1612	1855	870
1648	1791	875
1700	1773	879
1715	1763	884
1714	1770	888
1705	1826	893
1723	1901	898
1755	1945	903
1758	1849	907
1748	1821	912
1739	1809	916
1734	1812	921
1730	1850	925
1722	1919	930
1722	1857	934
1706	1834	940
1712	1817	944
1711	1811	949
1672	1812	954
1673	1848	958
1722	1904	963
1779	1923	967
1803	1880	972
1816	1815	976
1812	1790	982
1796	1861	986
1801	1984	991
1769	1931	995
1759	2018	1000
1759	1876	1004
1746	1820	1009
1704	1756	1014
1715	1723	1018
1754	1734	1024
1801	1805	1028
1838	1886	1033
1868	1849	1037
1865	1777	1042
1859	1726	1047
1796	1727	1051
1775	1814	1056
1798	1861	1060
1809	1843	1065
1839	1739	1070
1832	1633	1075
1803	1576	1080
1781	1591	1084
1723	1614	1089
1699	1582	1093
1703	1668	1098
1698	1690	1103
1658	1618	1107
1576	1687	1113
1587	1754	1117
1539	1699	1122
1418	1594	1126
1329	1667	1131
1294	1558	1136
1364	1478	1140
1408	1429	1145
1371	1388	1149
1310	1389	1155
1336	1507	1159
1413	1717	1164
1409	1612	1169
1317	1639	1173
1296	1652	1178
1307	1562	1182
1266	1678	1187
1209	1487	1192
1181	1355	1197
1195	1431	1202
1205	1670	1206
1137	1409	1211
1084	1314	1215
1103	1331	1220
1156	1373	1225
1088	1290	1229
1052	1223	1234
1120	1365	1239
1165	1543	1244
1148	1369	1248
1132	1433	1253
1105	1347	1258
1106	1203	1262
1129	1197	1267
1086	1182	1271
1076	1216	1276
1070	1202	1282
1055	1311	1286
1027	1276	1291
963	1281	1295
949	1362	1300
1010	1169	1304
1062	1082	1309
1045	1103	1313
1030	1024	1318
1011	1066	1324
1014	1007	1328
1083	1021	1333
1170	990	1337
1162	1015	1342
1064	1161	1346
1024	1182	1351
1070	958	1356
1110	907	1360
1075	1053	1366
1052	1053	1370
1061	982	1375
1043	1101	1379
1005	1092	1384
980	1122	1388
973	1128	1393
984	1031	1398
1025	1146	1402
1095	1001	1408
1132	1030	1412
1124	1047	1417
1120	1027	1421
1143	1119	1426
1143	1131	1431
1139	1077	1435
1117	1100	1440
1096	1067	1444
1110	1127	1449
1140	1230	1455
1144	1118	1459
1137	1123	1464
1183	1214	1468
1230	1125	1473
1248	1210	1477
1266	1198	1482
1290	1296	1487
1260	1128	1491
1229	1152	1497
1220	1104	1501
1250	1139	1506
1271	1089	1510
1264	1264	1515
1245	1180	1520
1268	1123	1524
1265	1135	1529
1270	1204	1533
1309	1294	1539
1339	1335	1544
1426	1195	1548
1480	1139	1553
1485	1198	1557
1544	1318	1562
1534	1310	1566
1444	1345	1571
1473	1213	1576
1529	1194	1581
1544	1209	1586
1527	1271	1590
1524	1325	1595
1518	1283	1599
1528	1253	1604
1568	1235	1609
1591	1233	1613
1609	1240	1618
1656	1287	1623
1704	1266	1628
1728	1308	1633
1712	1280	1637
1669	1315	1642
1632	1377	1646
1615	1320	1651
1626	1354	1655
1644	1274	1660
1655	1237	1666
1662	1245	1670
1675	1239	1675
1690	1258	1679
1714	1302	1684
1751	1280	1688
1762	1268	1693
1758	1266	1698
1759	1268	1702
1765	1296	1708
1773	1289	1712
1781	1302	1717
1792	1287	1722
1801	1296	1726
1821	1281	1731
1840	1290	1735
1865	1350	1740
1914	1431	1744
1936	1342	1750
1924	1321	1755
1906	1303	1759
1900	1299	1764
1897	1301	1768
1901	1307	1773
1910	1314	1777
1918	1319	1782
1931	1319	1787
1950	1322	1792
1960	1332	1797
1966	1400	1801
1984	1395	1806
2002	1370	1811
2001	1358	1815
1993	1352	1820
1991	1359	1824
1997	1446	1829
2007	1451	1833
2007	1420	1839
2008	1404	1844
2008	1384	1848
2019	1382	1853
2047	1415	1857
2047	1427	1862
2037	1419	1866
2015	1414	1871
1998	1402	1876
1993	1416	1881
1987	1420	1886
1981	1445	1890
1973	1435	1895
1983	1427	1900
1986	1417	1904
1975	1416	1909
2010	1516	1913
2047	1548	1918
2047	1487	1923
1992	1452	1928
1959	1452	1933
1970	1509	1937
1972	1575	1942
1943	1545	1946
1932	1486	1951
1962	1452	1955
1964	1431	1960
1944	1432	1966
1924	1485	1970
1907	1509	1975
1911	1482	1979
1924	1451	1984
1937	1436	1989
1952	1441	1993
1973	1576	1998
1963	1540	2002
1932	1508	2008
1894	1473	2012
1907	1460	2017
1946	1528	2022
1959	1686	2026
1964	1547	2031
1952	1509	2035
1899	1488	2040
1841	1466	2044
1804	1490	2050
1786	1554	2055
1769	1540	2059
1811	1512	2064
1858	1486	2068
1867	1454	2073
1870	1450	2078
1852	1505	2082
1849	1578	2087
1898	1575	2092
1905	1537	2097
1896	1513	2101
1856	1502	2106
1852	1564	2111
1896	1652	2115
1929	1618	2120
1931	1561	2124
1875	1520	2129
1810	1499	2134
1776	1485	2139
1745	1494	2144
1733	1613	2148
1747	1619	2153
1762	1531	2157
1759	1487	2162
1756	1466	2167
1739	1462	2171
1741	1486	2177
1762	1500	2181
1788	1495	2186
1796	1475	2190
1795	1470	2195
1812	1485	2200
1843	1635	2204
1840	1682	2209
1837	1550	2213
1826	1511	2219
1792	1484	2223
1762	1496	2228
1736	1547	2233
1738	1560	2237
1725	1557	2242
1676	1532	2246
1670	1517	2251
1724	1513	2256
1735	1524	2260
1721	1592	2266
1727	1606	2270
1780	1578	2275
1804	1568	2279
1797	1553	2284
1774	1612	2289
1745	1640	2293
1708	1646	2298
1702	1608	2302
1718	1588	2308
1724	1575	2312
1712	1583	2317
1685	1601	2322
1636	1632	2326
1627	1654	2331
1669	1657	2335
1700	1662	2340
1718	1670	2345
1723	1768	2350
1727	1829	2355
1733	1775	2359
1734	1736	2364
1717	1724	2368
1694	1719	2373
1679	1725	2378
1656	1750	2382
1616	1758	2387
1603	1757	2392
1630	1767	2397
1650	1771	2401
1637	1781	2406
1592	1795	2411
1574	1816	2415
1591	1835	2420
1657	1799	2424
1695	1796	2429
1721	1813	2435
1719	1784	2439
1682	1821	2444
1649	1858	2448
1661	1805	2453
1694	1788	2457
1719	1771	2462
1726	1764	2467
1705	1769	2471
1663	1773	2477
1677	1793	2481
1744	1781	2486
1772	1762	2491
1766	1758	2495
1754	1874	2500
1695	1993	2504
1673	1883	2509
1662	1803	2513
1691	1751	2519
1725	1721	2524
1733	1703	2528
1740	1766	2533
1693	1901	2537
1662	1909	2542
1671	1809	2546
1695	1838	2551
1667	1710	2556
1701	1627	2561
1721	1617	2566
1689	1701	2570
1619	1740	2575
1598	1629	2580
1628	1568	2584
1633	1514	2589
1604	1476	2593
1573	1468	2598
1530	1526	2603
1526	1704	2608
1543	1757	2613
1491	1614	2617
1498	1475	2622
1553	1405	2626
1606	1372	2631
1580	1595	2635
1480	1633	2640
1373	1504	2646
1348	1413	2650
1384	1315	2655
1444	1338	2659
1443	1486	2664
1354	1454	2669
1338	1340	2673
1320	1297	2678
1344	1288	2682
1398	1579	2688
1385	1503	2692
1307	1529	2697
1262	1347	2702
1242	1268	2706
1326	1161	2711
1354	1268	2715
1272	1423	2720
1151	1371	2724
1164	1345	2729
1218	1229	2735
1264	1183	2739
1318	1377	2744
1311	1248	2748
1248	1254	2753
1190	1341	2758
1242	1335	2762
1283	1260	2767
1307	1112	2771
1348	1056	2777
1350	1170	2781
1328	1270	2786
1235	1197	2791
1253	1224	2795
1274	1033	2800
1325	976	2804
1338	958	2809
1248	1152	2813
1112	1176	2819
1078	1046	2824
1103	1038	2828
1119	1188	2833
1189	1379	2837
1316	1150	2842
1314	1063	2846
1265	1032	2851
1233	1238	2856
1193	1173	2861
1188	1196	2866
1190	1195	2870
1207	1268	2875
1212	1161	2880
1217	1225	2884
1193	1093	2889
1163	1118	2893
1214	1251	2898
1292	1232	2903
1314	1138	2908
1280	1098	2913
1238	1072	2917
1226	1119	2922
1314	1255	2926
1395	1441	2931
1368	1210	2935
1283	1179	2940
1230	1170	2946
1237	1181	2950
1222	1344	2955
1209	1276	2959
1232	1183	2964
1261	1272	2969
1295	1252	2973
1336	1265	2978
1281	1228	2982
1230	1242	2988
1251	1289	2992
1311	1218	2997
1300	1216	3002
1294	1240	3006
1327	1271	3011
1319	1224	3015
1336	1277	3020
1386	1366	3024
1373	1304	3030
1363	1302	3035
1428	1323	3039
1441	1242	3044
1373	1288	3048
1318	1282	3053
1378	1348	3058
1467	1371	3062
1427	1297	3067
1299	1235	3072
1292	1263	3077
1367	1311	3081
1428	1292	3086
1442	1321	3091
1432	1331	3095
1440	1335	3100
1455	1309	3104
1481	1361	3109
1527	1401	3115
1561	1380	3119
1549	1397	3124
1593	1334	3128
1613	1319	3133
1605	1407	3137
1593	1378	3142
1497	1346	3147
1418	1340	3151
1387	1429	3156
1396	1369	3161
1412	1346	3166
1425	1353	3170
1437	1454	3175
1487	1423	3180
1506	1375	3184
1509	1351	3189
1542	1335	3193
1729	1354	3198
1722	1360	3204
1585	1421	3208
1500	1381	3213
1467	1372	3217
1439	1346	3222
1439	1334	3226
1448	1325	3231
1471	1334	3236
1486	1322	3240
1493	1321	3246
1502	1320	3250
1507	1347	3255
1508	1390	3259
1513	1374	3264
1524	1354	3269
1522	1369	3273
1520	1340	3278
1529	1348	3282
1594	1426	3288
1630	1413	3293
1592	1393	3297
1513	1375	3302
1478	1363	3306
1469	1358	3311
1470	1391	3315
1478	1395	3320
1479	1388	3325
1483	1395	3330
1478	1391	3335
1475	1437	3339
1471	1490	3344
1488	1460	3348
1493	1416	3353
1485	1389	3358
1467	1387	3362
1467	1439	3367
1500	1475	3372
1501	1440	3377
1468	1432	3382
1432	1419	3386
1416	1414	3391
1411	1422	3395
1451	1552	3400
1457	1522	3404
1428	1481	3409
1400	1450	3415
1390	1435	3419
1387	1451	3424
1392	1508	3428
1396	1500	3433
1398	1519	3437
1390	1489	3442
1393	1474	3447
1401	1474	3451
1453	1676	3457
1461	1589	3461
1438	1522	3466
1386	1497	3471
1359	1480	3475
1348	1514	3480
1326	1569	3484
1310	1620	3489
1329	1552	3493
1400	1510	3499
1401	1485	3504
1396	1474	3508
1397	1473	3513
1410	1500	3517
1414	1523	3522
1387	1532	3527
1379	1521	3531
1388	1514	3536
1387	1504	3540
1360	1521	3546
1351	1539	3550
1378	1526	3555
1425	1540	3560
1457	1515	3564
1436	1514	3569
1398	1552	3573
1352	1557	3578
1363	1523	3582
1356	1542	3588
1342	1480	3593
1326	1530	3597
1329	1547	3602
1366	1523	3606
1414	1528	3611
1456	1578	3616
1421	1613	3620
1367	1522	3625
1349	1497	3630
1368	1492	3635
1403	1536	3639
1402	1580	3644
1368	1564	3649
1348	1503	3653
1309	1481	3658
1276	1487	3662
1279	1613	3667
1292	1657	3672
1302	1551	3677
1314	1507	3682
1327	1483	3686
1328	1470	3691
1320	1500	3695
1263	1626	3700
1284	1613	3705
1302	1577	3709
1299	1585	3715
1285	1533	3719
1289	1587	3724
1329	1716	3728
1365	1559	3733
1377	1508	3738
1322	1480	3742
1263	1471	3747
1233	1479	3751
1238	1522	3757
1249	1712	3762
1276	1593	3766
1292	1546	3771
1289	1513	3775
1292	1493	3780
1295	1497	3784
1262	1522	3789
1275	1580	3794
1330	1580	3799
1358	1578	3804
1333	1558	3808
1315	1565	3813
1319	1636	3817
1306	1612	3822
1322	1592	3827
1360	1581	3831
1385	1580	3836
1395	1602	3841
1364	1656	3846
1368	1622	3851
1378	1615	3855
1382	1610	3860
1385	1624	3864
1375	1657	3869
1345	1715	3873
1317	1687	3878
1299	1689	3884
1283	1701	3888
1331	1713	3893
1392	1725	3897
1428	1748	3902
1455	1763	3906
1433	1794	3911
1423	1798	3916
1420	1785	3920
1421	1768	3926
1433	1770	3930
1435	1811	3935
1421	1881	3940
1423	1828	3944
1434	1810	3949
1444	1801	3953
1447	1805	3958
1375	1835	3962
1372	1853	3968
1444	1859	3973
1538	1859	3977
1564	1858	3982
1553	1854	3986
1546	1847	3991
1532	1845	3995
1502	1865	4000
1500	1970	4005
1507	1936	4009
1502	1998	4015
1488	1908	4019
1464	1858	4024
1484	1825	4029
1571	1810	4033
1593	1808	4038
1504	1866	4042
1461	1820	4047
1480	1787	4051
1545	1763	4057
1586	1792	4062
1567	1960	4066
1555	1962	4071
1563	1852	4075
1590	1786	4080
1683	1721	4085
1699	1696	4089
1683	1687	4094
1592	1722	4099
1566	1768	4104
1592	1725	4108
1608	1764	4113
1611	1808	4118
1545	1738	4122
1492	1628	4127
1470	1583	4131
1515	1590	4136
1583	1806	4141
1576	1772	4146
1524	1628	4151
1514	1531	4155
1556	1459	4160
1587	1425	4164
1594	1422	4169
1505	1588	4174
1384	1700	4178
1354	1508	4184
1400	1455	4188
1462	1375	4193
1507	1430	4197
1558	1646	4202
1509	1791	4207
1380	1764	4211
1360	1503	4216
1449	1452	4220
1544	1384	4226
1514	1275	4230
1448	1212	4235
1434	1329	4240
1481	1674	4244
1492	1617	4249
1478	1479	4253
1510	1420	4258
1608	1320	4263
1631	1291	4268
1548	1327	4273
1443	1372	4277
1442	1342	4282
1553	1366	4286
1691	1223	4291
1698	1210	4296
1565	1225	4300
1418	1121	4305
1470	1326	4310
1604	1318	4315
1670	1318	4319
1578	1224	4324
1523	1163	4329
1569	1180	4333
1631	1131	4338
1657	1311	4342
1619	1282	4347
1527	1413	4353
1428	1270	4357
1449	1124	4362
1550	1065	4366
1607	1149	4371
1601	1245	4375
1567	1381	4380
1486	1353	4385
1476	1334	4389
1570	1150	4395
1709	1296	4399
1717	1231	4404
1633	1257	4408
1552	1182	4413
1561	1146	4418
1545	1110	4422
1550	1128	4427
1548	1279	4431
1599	1305	4436
1626	1270	4442
1642	1298	4446
1611	1306	4451
1622	1255	4455
1667	1262	4460
1707	1322	4464
1722	1389	4469
1695	1278	4474
1736	1341	4478
1764	1250	4484
1725	1244	4488
1689	1342	4493
1680	1440	4497
1682	1472	4502
1694	1384	4507
1744	1265	4511
1798	1286	4516
1873	1327	4520
1863	1337	4526
1827	1358	4531
1758	1345	4535
1680	1485	4540
1624	1401	4544
1625	1320	4549
1643	1316	4553
1765	1317	4558
1899	1425	4563
1870	1455	4568
1823	1448	4573
1785	1395	4577
1831	1435	4582
1845	1365	4586
1790	1397	4591
1753	1514	4596
1753	1364	4600
1739	1375	4605
1753	1306	4610
1828	1354	4615
1852	1319	4620
1803	1327	4624
1764	1469	4629
1766	1396	4633
1782	1410	4638
1844	1431	4642
1875	1389	4647
1836	1372	4653
1791	1349	4657
1847	1361	4662
1845	1356	4666
1773	1436	4671
1722	1374	4676
1706	1393	4680
1725	1335	4685
1738	1321	4689
1749	1320	4695
1802	1414	4699
1876	1402	4704
1860	1415	4709
1816	1358	4713
1788	1358	4718
1786	1349	4722
1800	1384	4727
1793	1372	4731
1777	1359	4737
1786	1390	4742
1794	1343	4746
1790	1327	4751
1783	1332	4755
1779	1337	4760
1785	1333	4765
1785	1330	4769
1780	1329	4774
1774	1329	4779
1768	1343	4784
1801	1409	4788
1803	1386	4793
1777	1414	4798
1750	1386	4802
1720	1358	4807
1703	1347	4811
1690	1355	4816
1677	1364	4820
1670	1364	4826
1670	1362	4831
1669	1365	4835
1662	1388	4840
1650	1467	4844
1681	1434	4849
1711	1430	4854
1704	1395	4858
1660	1377	4864
1624	1367	4868
1633	1458	4873
1672	1429	4877
1679	1399	4882
1626	1381	4887
1573	1374	4891
1544	1377	4896
1531	1404	4900
1518	1442	4905
1490	1448	4910
1494	1436	4915
1509	1435	4920
1521	1434	4924
1549	1500	4929
1601	1534	4933
1629	1515	4938
1591	1471	4943
1533	1437	4947
1516	1433	4953
1536	1537	4957
1535	1492	4962
1539	1482	4966
1520	1454	4971
1490	1438	4976
1482	1424	4980
1487	1435	4985
1476	1454	4989
1450	1473	4995
1454	1482	4999
1490	1454	5004
1514	1443	5009
1508	1470	5013
1490	1575	5018
1480	1550	5022
1503	1488	5027
1511	1467	5032
1496	1442	5037
1485	1558	5042
1510	1538	5046
1497	1491	5051
1459	1453	5055
1424	1438	5060
1420	1426	5065
1424	1442	5069
1440	1480	5074
1473	1470	5079
1490	1467	5084
1493	1434	5089
1491	1429	5093
1473	1433	5098
1443	1514	5102
1407	1545	5107
1441	1543	5111
1459	1495	5116
1471	1458	5122
1478	1444	5126
1482	1557	5131
1410	1669	5135
1394	1546	5140
1428	1532	5144
1423	1482	5149
1378	1443	5154
1350	1437	5158
1333	1443	5164
1302	1449	5168
1270	1498	5173
1252	1512	5178
1261	1478	5182
1281	1468	5187
1335	1478	5191
1375	1494	5196
1400	1513	5200
1439	1506	5206
1433	1490	5211
1387	1548	5215
1356	1634	5220
1328	1588	5224
1335	1545	5229
1322	1510	5233
1306	1508	5238
1268	1503	5243
1256	1514	5248
1287	1527	5253
1312	1539	5257
1347	1551	5262
1339	1570	5267
1263	1622	5271
1223	1671	5276
1291	1713	5280
1348	1643	5285
1366	1625	5289
1360	1650	5295
1377	1689	5300
1381	1646	5304
1359	1631	5309
1341	1628	5313
1335	1630	5318
1321	1637	5323
1321	1645	5327
1304	1655	5332
1318	1668	5337
1347	1677	5342
1363	1688	5346
1326	1770	5351
1279	1830	5356
1301	1734	5360
1343	1723	5365
1366	1716	5369
1357	1731	5374
1356	1778	5379
1365	1770	5384
1388	1754	5389
1375	1742	5393
1368	1736	5398
1360	1738	5402
1346	1749	5407
1335	1748	5412
1352	1751	5416
1373	1753	5422
1377	1757	5426
1313	1772	5431
1280	1785	5435
1329	1784	5440
1405	1775	5445
1456	1806	5449
1466	1914	5454
1453	1784	5458
1431	1840	5464
1404	1800	5468
1375	1756	5473
1363	1745	5478
1364	1815	5482
1310	1869	5487
1295	1797	5491
1356	1729	5496
1410	1699	5501
1431	1675	5506
1420	1657	5511
1406	1652	5515
1370	1716	5520
1351	1944	5524
1312	1800	5529
1295	1762	5534
1342	1811	5538
1318	1735	5543
1309	1641	5548
1398	1733	5553
1385	1713	5557
1267	1663	5562
1219	1584	5567
1293	1502	5571
1350	1473	5576
1388	1458	5580
1433	1506	5585
1507	1715	5591
1454	1629	5595
1402	1499	5600
1342	1436	5604
1361	1370	5609
1355	1357	5613
1321	1593	5618
1236	1820	5623
1155	1610	5627
1194	1492	5633
1256	1394	5637
1325	1341	5642
1351	1354	5646
1302	1333	5651
1184	1481	5656
1131	1518	5660
1214	1401	5665
1252	1404	5669
1247	1344	5675
1238	1405	5680
1230	1305	5684
1241	1236	5689
1234	1416	5693
1157	1580	5698
1155	1556	5702
1236	1565	5707
1254	1326	5712
1234	1339	5716
1272	1431	5722
1322	1291	5726
1288	1179	5731
1344	1208	5735
1317	1276	5740
1298	1194	5745
1307	1220	5749
1267	1411	5754
1190	1426	5758
1178	1395	5764
1240	1236	5769
1260	1324	5773
1242	1359	5778
1288	1305	5782
1297	1364	5787
1286	1147	5791
1262	1139	5796
1264	1235	5801
1308	1356	5806
1282	1313	5811
1246	1468	5815
1204	1334	5820
1230	1406	5825
1291	1209	5829
1297	1165	5834
1272	1238	5838
1267	1501	5843
1344	1410	5848
1377	1233	5853
1298	1175	5858
1207	1212	5862
1166	1429	5867
1191	1362	5871
1297	1328	5876
1409	1263	5880
1361	1244	5885
1280	1350	5891
1275	1314	5895
1318	1296	5900
1283	1235	5904
1216	1273	5909
1281	1443	5914
1382	1522	5918
1363	1339	5923
1290	1348	5927
1290	1430	5933
1327	1415	5937
1358	1305	5942
1371	1416	5947
1408	1462	5951
1390	1519	5956
1328	1467	5960
1292	1398	5965
1316	1432	5969
1402	1319	5975
1454	1293	5980
1403	1335	5984
1345	1319	5989
1378	1486	5993
1388	1423	5998
1354	1421	6003
1376	1476	6007
1392	1505	6012
1307	1537	6017
1292	1486	6022
1310	1468	6026
1357	1524	6031
1455	1413	6036
1447	1418	6040
1422	1374	6045
1412	1397	6049
1448	1366	6054
1513	1451	6059
1550	1379	6064
1573	1422	6069
1475	1367	6073
1389	1450	6078
1354	1395	6082
1400	1411	6087
1447	1448	6092
1443	1423	6096
1424	1457	6102
1428	1428	6106
1472	1403	6111
1569	1419	6115
1550	1379	6120
1502	1399	6125
1478	1424	6129
1449	1385	6134
1455	1513	6138
1474	1382	6144
1507	1360	6149
1556	1340	6153
1603	1345	6158
1613	1350	6162
1596	1349	6167
1576	1373	6171
1588	1369	6176
1580	1377	6181
1554	1414	6185
1538	1384	6191
1541	1408	6195
1550	1361	6200
1552	1346	6204
1553	1348	6209
1551	1353	6214
1553	1370	6218
1547	1388	6223
1544	1390	6227
1557	1409	6233
1550	1383	6238
1553	1400	6242
1574	1392	6247
1573	1377	6251
1556	1371	6256
1543	1371	6260
1550	1467	6265
1578	1429	6270
1579	1399	6275
1524	1379	6280
1482	1362	6284
1468	1385	6289
1458	1404	6294
1452	1443	6298
1439	1442	6303
1423	1411	6307
1433	1386	6312
1430	1397	6317
1430	1433	6322
1466	1520	6327
1479	1472	6331
1445	1423	6336
1401	1384	6340
1383	1373	6345
1379	1415	6349
1351	1495	6354
1322	1458	6360
1324	1431	6364
1363	1409	6369
1367	1395	6373
1377	1410	6378
1415	1447	6383
1443	1517	6387
1411	1434	6392
1383	1422	6396
1358	1391	6402
1332	1441	6406
1321	1562	6411
1340	1627	6416
1314	1554	6420
1278	1473	6425
1280	1417	6429
1317	1385	6434
1341	1384	6438
1361	1419	6444
1369	1440	6449
1366	1410	6453
1350	1397	6458
1346	1391	6462
1342	1420	6467
1337	1499	6472
1377	1647	6476
1405	1492	6481
1390	1459	6486
1349	1406	6491
1292	1385	6495
1248	1420	6500
1233	1471	6505
1225	1516	6509
1182	1428	6514
1195	1391	6518
1228	1362	6523
1250	1352	6528
1255	1356	6533
1296	1363	6538
1350	1370	6542
1383	1366	6547
1379	1366	6551
1361	1398	6556
1347	1605	6561
1369	1559	6565
1412	1471	6571
1392	1396	6575
1342	1371	6580
1318	1369	6584
1308	1465	6589
1290	1489	6594
1272	1425	6598
1252	1404	6603
1223	1383	6607
1245	1380	6612
1262	1391	6617
1242	1411	6622
1282	1453	6627
1283	1426	6631
1304	1414	6636
1327	1415	6640
1334	1424	6645
1380	1512	6650
1433	1638	6654
1427	1503	6660
1390	1471	6664
1338	1451	6669
1293	1463	6673
1254	1524	6678
1232	1565	6683
1250	1499	6687
1328	1480	6692
1363	1470	6696
1369	1479	6702
1376	1497	6706
1378	1544	6711
1351	1570	6716
1328	1549	6720
1328	1551	6725
1338	1556	6729
1294	1580	6734
1276	1717	6739
1307	1720	6744
1366	1638	6749
1386	1625	6753
1385	1627	6758
1381	1638	6762
1376	1649	6767
1359	1670	6772
1318	1683	6776
1335	1691	6781
1360	1693	6786
1379	1701	6791
1376	1714	6795
1325	1731	6800
1276	1758	6805
1277	1772	6809
1331	1759	6814
1386	1753	6818
1410	1751	6823
1422	1774	6829
1412	1829	6833
1407	1783	6838
1436	1760	6842
1441	1744	6847
1420	1740	6851
1404	1760	6856
1360	1830	6861
1305	1781	6865
1310	1766	6871
1329	1754	6875
1377	1748	6880
1441	1752	6884
1434	1765	6889
1374	1793	6894
1405	1813	6898
1444	1779	6903
1460	1751	6907
1484	1724	6913
1497	1847	6918
1384	1903	6922
1363	1867	6927
1414	1760	6931
1513	1677	6936
1516	1656	6940
1458	1677	6945
1377	1769	6950
1370	1753	6955
1439	1657	6960
1497	1612	6964
1483	1637	6969
1432	1854	6974
1347	1757	6978
1313	1610	6983
1337	1547	6987
1361	1521	6992
1477	1602	6996
1531	1777	7002
1400	1785	7007
1281	1626	7011
1349	1488	7016
1421	1433	7020
1400	1453	7025
1378	1471	7029
1409	1807	7034
1366	1750	7040
1311	1739	7044
1349	1566	7049
1356	1401	7053
1416	1359	7058
1460	1316	7063
1477	1312	7067
1429	1501	7072
1309	1687	7076
1285	1578	7081
1364	1394	7086
1461	1273	7091
1489	1244	7096
1454	1553	7100
1424	1685	7105
1328	1658	7109
1297	1709	7114
1335	1531	7118
1342	1344	7123
1378	1400	7129
1422	1268	7133
1422	1436	7138
1342	1518	7142
1288	1397	7147
1293	1373	7152
1364	1565	7156
1372	1397	7161
1384	1609	7165
1401	1365	7171
1485	1371	7175
1504	1401	7180
1464	1327	7185
1482	1384	7189
1437	1318	7194
1364	1188	7198
1432	1363	7203
1435	1401	7208
1405	1354	7213
1408	1304	7218
1444	1307	7222
1405	1229	7227
1434	1211	7231
1455	1434	7236
1386	1462	7241
1262	1333	7245
1217	1401	7250
1235	1405	7255
1331	1276	7260
1400	1237	7264
1380	1238	7269
1459	1153	7274
1501	1169	7278
1495	1254	7283
1515	1393	7287
1463	1421	7292
1433	1410	7298
1464	1372	7302
1455	1180	7307
1442	1243	7311
1450	1345	7316
1441	1256	7320
1402	1289	7325
1419	1254	7330
1538	1382	7334
1576	1321	7340
1518	1336	7344
1461	1311	7349
1515	1192	7353
1505	1257	7358
1452	1429	7363
1414	1408	7367
1436	1284	7372
1523	1295	7376
1527	1546	7382
1508	1426	7387
1465	1310	7391
1432	1305	7396
1454	1293	7400
1491	1353	7405
1513	1413	7409
1520	1379	7414
1631	1380	7419
1552	1339	7424
1460	1306	7429
1511	1485	7433
1555	1471	7438
1561	1394	7443
1552	1362	7447
1540	1386	7452
1575	1283	7456
1635	1348	7461
1668	1462	7465
1712	1487	7471
1681	1482	7476
1568	1361	7480
1447	1341	7485
1416	1388	7489
1469	1375	7494
1548	1350	7498
1576	1317	7503
1579	1327	7508
1603	1335	7513
1658	1397	7518
1725	1392	7522
1757	1372	7527
1750	1461	7532
1655	1367	7536
1571	1467	7541
1558	1454	7545
1558	1406	7550
1571	1402	7555
1641	1369	7560
1649	1338	7565
1634	1328	7569
1660	1340	7574
1824	1344	7578
1815	1333	7583
1728	1367	7587
1692	1332	7592
1755	1371	7598
1721	1334	7602
1660	1308	7607
1627	1296	7611
1623	1291	7616
1626	1299	7621
1641	1311	7625
1658	1312	7630
1665	1333	7634
1664	1323	7640
1672	1325	7644
1676	1348	7649
1676	1354	7654
1670	1356	7658
1661	1415	7663
1678	1370	7667
1696	1335	7672
1680	1312	7677
1664	1331	7682
1655	1382	7687
1654	1357	7691
1655	1331	7696
1646	1323	7700
1641	1328	7705
1646	1354	7710
1686	1418	7714
1718	1364	7719
1701	1341	7724
1656	1331	7729
1623	1330	7733
1615	1352	7738
1682	1465	7743
1715	1410	7747
1658	1382	7752
1557	1357	7756
1505	1349	7761
1504	1353	7767
1493	1441	7771
1503	1401	7776
1536	1379	7780
1528	1362	7785
1536	1352	7789
1537	1350	7794
1551	1387	7799
1619	1462	7803
1663	1415	7809
1628	1389	7813
1540	1364	7818
1482	1355	7822
1452	1377	7827
1435	1501	7832
1412	1497	7836
1405	1434	7841
1422	1389	7845
1442	1372	7851
1465	1376	7856
1482	1425	7860
1508	1503	7865
1547	1454	7869
1514	1409	7874
1460	1375	7878
1445	1362	7883
1445	1401	7888
1434	1529	7892
1437	1422	7898
1477	1401	7902
1506	1378	7907
1510	1368	7912
1476	1377	7916
1425	1418	7921
1379	1435	7925
1405	1413	7930
1454	1384	7934
1475	1373	7940
1469	1448	7945
1460	1506	7949
1471	1517	7954
1506	1433	7958
1506	1443	7963
1440	1409	7967
1411	1370	7972
1425	1362	7977
1478	1357	7982
1512	1408	7987
1483	1420	7991
1485	1372	7996
1482	1353	8001
1481	1347	8005
1466	1373	8010
1463	1515	8014
1465	1451	8019
1505	1412	8024
1491	1388	8029
1455	1389	8034
1445	1489	8038
1453	1600	8043
1473	1511	8047
1481	1413	8052
1442	1375	8056
1404	1363	8061
1390	1371	8067
1375	1383	8071
1395	1514	8076
1408	1471	8080
1409	1451	8085
1400	1421	8090
1404	1405	8094
1381	1414	8099
1359	1521	8103
1385	1614	8109
1432	1650	8113
1434	1482	8118
1409	1450	8123
1416	1441	8127
1413	1454	8132
1395	1486	8136
1432	1497	8141
1460	1485	8145
1453	1483	8151
1434	1487	8156
1441	1496	8160
1428	1509	8165
1416	1535	8169
1400	1564	8174
1428	1580	8179
1477	1587	8183
1476	1602	8188
1472	1613	8193
1472	1635	8198
1460	1680	8202
1473	1665	8207
1490	1655	8212
1478	1659	8216
1458	1678	8221
1443	1781	8225
1408	1766	8230
1405	1719	8235
1423	1703	8240
1425	1698	8245
1433	1704	8249
1372	1744	8254
1330	1822	8258
1402	1865	8263
1495	1757	8268
1497	1746	8272
1459	1776	8278
1343	1908	8282
1246	1812	8287
1315	1775	8291
1466	1750	8296
1551	1735	8301
1546	1779	8305
1508	1770	8310
1461	1739	8314
1465	1811	8320
1464	1919	8325
1439	1827	8329
1440	1824	8334
1481	1722	8338
1483	1695	8343
1502	1701	8347
1502	1902	8352
1494	1836	8357
1530	1837	8361
1485	1762	8367
1445	1676	8371
1450	1641	8376
1494	1624	8380
1495	1647	8385
1508	1791	8390
1487	1803	8394
1450	1796	8399
1431	1658	8403
1469	1569	8409
1488	1573	8414
1470	1681	8418
1393	1859	8423
1336	1845	8427
1332	1927	8432
1386	1913	8436
1411	1750	8441
1352	1723	8446
1286	1530	8451
1360	1513	8456
1394	1534	8460
1415	1626	8465
1408	1605	8469
1354	1725	8474
1383	1543	8479
1343	1551	8483
1297	1519	8488
1368	1689	8493
1428	1871	8498
1391	1808	8503
1239	1771	8507
1188	1564	8512
1327	1401	8516
1513	1490	8521
1539	1700	8525
1598	1723	8530
1586	1633	8536
1481	1581	8540
1330	1604	8545
1306	1657	8549
1361	1580	8554
1473	1470	8558
1473	1492	8563
1336	1581	8568
1271	1413	8572
1360	1552	8578
1381	1420	8582
1405	1482	8587
1412	1394	8592
1392	1345	8596
1358	1516	8601
1345	1390	8605
1381	1382	8610
1427	1403	8614
1408	1265	8620
1421	1406	8625
1417	1287	8629
1367	1189	8634
1357	1204	8638
1362	1133	8643
1407	1207	8647
1393	1332	8652
1393	1204	8657
1451	1239	8662
1418	1218	8667
1334	1331	8671
1321	1209	8676
1324	1287	8681
1297	1379	8685
1343	1218	8690
1435	1176	8694
1455	1298	8699
1404	1290	8704
1350	1423	8709
1342	1200	8714
1412	1263	8718
1533	1344	8723
1537	1273	8727
1480	1235	8732
1416	1306	8737
1281	1249	8741
1299	1235	8747
1438	1346	8751
1468	1283	8756
1417	1386	8760
1367	1352	8765
1336	1251	8770
1341	1208	8774
1385	1229	8779
1361	1449	8783
1388	1474	8788
1445	1354	8793
1413	1307	8798
1421	1454	8803
1421	1323	8807
1464	1395	8812
1583	1514	8816
1553	1335	8821
1456	1427	8826
1353	1418	8830
1274	1433	8836
1296	1576	8840
1372	1463	8845
1449	1395	8849
1440	1388	8854
1405	1432	8859
1462	1577	8863
1438	1494	8868
1358	1561	8872
1312	1509	8878
1351	1462	8882
1435	1509	8887
1515	1456	8892
1581	1571	8896
1511	1583	8901
1348	1434	8905
1296	1363	8910
1381	1364	8915
1457	1549	8920
1461	1447	8925
1480	1435	8929
1473	1443	8934
1443	1435	8938
1435	1441	8943
1441	1587	8948
1452	1529	8952
1459	1525	8957
1476	1499	8962
1497	1497	8967
1576	1525	8972
1612	1507	8976
1637	1508	8981
1616	1495	8985
1548	1442	8990
1494	1422	8994
1485	1422	8999
1605	1447	9005
1651	1472	9009
1603	1451	9014
1530	1434	9018
1491	1414	9023
1493	1412	9027
1509	1416	9032
1534	1433	9037
1557	1432	9041
1571	1434	9047
1580	1446	9051
1617	1522	9056
1680	1582	9061
1692	1491	9065
1633	1445	9070
1570	1418	9074
1548	1410	9079
1551	1417	9083
1552	1428	9089
1555	1436	9094
1568	1443	9098
1578	1448	9103
1579	1456	9107
1570	1467	9112
1568	1485	9116
1604	1510	9121
1632	1511	9126
1614	1473	9131
1584	1457	9136
1563	1463	9140
1598	1530	9145
1681	1520	9150
1674	1485	9154
1588	1452	9159
1517	1427	9163
1495	1421	9168
1493	1532	9172
1510	1498	9178
1536	1444	9183
1525	1418	9187
1498	1404	9192
1495	1407	9196
1505	1423	9201
1555	1459	9205
1578	1461	9210
1556	1444	9216
1505	1438	9220
1488	1455	9225
1569	1610	9229
1606	1539	9234
1576	1484	9239
1479	1432	9243
1394	1411	9248
1373	1429	9252
1357	1470	9257
1327	1446	9262
1336	1449	9267
1388	1438	9272
1433	1425	9276
1444	1423	9281
1447	1501	9285
1475	1530	9290
1509	1516	9294
1512	1440	9299
1480	1401	9305
1437	1397	9309
1409	1545	9314
1409	1573	9318
1466	1478	9323
1489	1423	9328
1459	1392	9332
1411	1390	9337
1360	1502	9341
1357	1468	9347
1427	1454	9351
1435	1418	9356
1435	1395	9361
1447	1364	9365
1430	1381	9370
1407	1434	9374
1375	1425	9379
1356	1418	9384
1337	1411	9389
1380	1386	9394
1441	1399	9398
1477	1501	9403
1515	1610	9407
1539	1465	9412
1517	1424	9417
1530	1395	9421
1541	1379	9426
1551	1420	9431
1518	1634	9436
1466	1483	9440
1421	1390	9445
1389	1357	9450
1364	1343	9454
1368	1340	9459
1367	1377	9463
1336	1422	9468
1320	1452	9474
1287	1421	9478
1265	1397	9483
1252	1403	9487
1258	1509	9492
1399	1629	9496
1538	1495	9501
1601	1453	9506
1530	1427	9510
1403	1409	9516
1348	1420	9520
1374	1439	9525
1431	1544	9529
1422	1520	9534
1421	1474	9539
1431	1435	9543
1427	1433	9548
1422	1440	9552
1413	1463	9558
1377	1553	9563
1331	1542	9567
1369	1533	9572
1424	1533	9576
1448	1553	9581
1418	1706	9585
1390	1687	9590
1430	1623	9595
1463	1588	9600
1508	1575	9605
1500	1579	9609
1474	1644	9614
1445	1732	9619
1463	1756	9623
1507	1654	9628
1497	1635	9632
1463	1633	9637
1428	1649	9641
1347	1719	9647
1266	1830	9652
1279	1824	9656
1367	1728	9661
1439	1707	9665
1433	1705	9670
1399	1760	9674
1356	1864	9679
1399	1858	9684
1457	1776	9689
1487	1727	9694
1496	1701	9698
1474	1710	9703
1399	1736	9708
1387	1693	9712
1363	1707	9717
1401	1772	9721
1487	1830	9726
1410	1890	9731
1290	1754	9736
1313	1731	9741
1375	1627	9745
1375	1683	9750
1428	1796	9754
1457	1809	9759
1473	1718	9763
1438	1612	9768
1401	1555	9774
1441	1539	9778
1508	1525	9783
1554	1772	9787
1555	2021	9792
1525	1745	9797
1446	1710	9801
1440	1636	9806
1439	1554	9810
1319	1597	9816
1319	1562	9820
1414	1749	9825
1405	1724	9830
1311	1745	9834
1331	1593	9839
1330	1568	9843
1263	1440	9848
1302	1388	9853
1429	1585	9858
1407	1696	9863
1382	1696	9867
1425	1678	9872
1454	1505	9876
1397	1467	9881
1322	1375	9886
1460	1620	9890
1611	1800	9895
1576	1731	9900
1450	1694	9905
1399	1670	9909
1475	1582	9914
1580	1703	9919
1579	1626	9923
1485	1495	9928
1451	1635	9932
1397	1702	9937
1409	1636	9943
1434	1549	9947
1429	1490	9952
1374	1603	9956
1364	1540	9961
1373	1387	9965
1360	1419	9970
1334	1469	9975
1293	1438	9979
1242	1374	9985
1343	1308	9989
1415	1438	9994
1381	1370	9998
1296	1294	10003
1399	1664	10008
1471	1430	10012
1408	1430	10017
1447	1474	10022
1501	1324	10027
1490	1377	10032
1419	1379	10036
1428	1232	10041
1422	1189	10046
1361	1334	10050
1307	1466	10055
1333	1281	10060
1423	1336	10064
1405	1605	10070
1355	1270	10075
1303	1288	10079
1345	1428	10084
1457	1318	10088
1480	1293	10093
1465	1401	10098
1414	1429	10102
1397	1384	10107
1387	1477	10113
1400	1504	10117
1536	1395	10122
1572	1314	10126
1482	1326	10131
1415	1331	10136
1467	1519	10140
1525	1297	10145
1474	1191	10150
1423	1434	10155
1328	1428	10160
1248	1440	10164
1298	1293	10169
1464	1532	10174
1580	1278	10178
1603	1227	10183
1532	1389	10188
1461	1418	10192
1352	1354	10198
1325	1346	10203
1446	1552	10207
1505	1507	10212
1530	1443	10216
1519	1532	10221
1451	1529	10226
1448	1527	10230
1537	1482	10235
1512	1451	10241
1473	1546	10245
1481	1457	10250
1521	1573	10254
1517	1400	10259
1591	1497	10264
1628	1428	10268
1544	1474	10273
1453	1695	10278
1473	1617	10283
1483	1593	10288
1444	1433	10292
1429	1511	10297
1492	1572	10302
1553	1520	10306
1606	1517	10311
1632	1605	10316
1614	1544	10320
1578	1498	10326
1529	1494	10330
1550	1441	10335
1610	1490	10340
1578	1499	10344
1545	1466	10349
1540	1498	10354
1568	1561	10358
1597	1461	10363
1643	1586	10369
1646	1460	10373
1652	1558	10378
1718	1528	10382
1874	1524	10387
1831	1494	10392
1667	1575	10396
1568	1561	10401
1572	1512	10406
1573	1472	10411
1587	1439	10416
1597	1550	10420
1616	1463	10425
1631	1470	10430
1642	1429	10434
1649	1403	10439
1668	1394	10444
1714	1396	10448
1762	1439	10454
1849	1493	10458
1814	1436	10463
1714	1423	10468
1646	1391	10472
1637	1380	10477
1639	1393	10482
1647	1399	10486
1659	1414	10491
1677	1417	10497
1689	1412	10501
1692	1416	10506
1693	1510	10510
1710	1596	10515
1703	1461	10520
1718	1405	10524
1712	1382	10529
1712	1386	10534
1707	1431	10539
1713	1466	10544
1730	1427	10548
1740	1401	10553
1721	1390	10558
1691	1391	10562
1695	1455	10567
1747	1475	10572
1736	1434	10576
1686	1417	10582
1617	1411	10586
1599	1407	10591
1598	1414	10596
1609	1510	10600
1624	1527	10605
1632	1480	10610
1610	1442	10614
1577	1436	10619
1550	1484	10624
1607	1577	10629
1646	1507	10634
1649	1462	10638
1584	1419	10643
1547	1404	10648
1570	1441	10652
1582	1524	10657
1541	1582	10662
1449	1519	10667
1470	1437	10672
1517	1398	10676
1509	1392	10681
1493	1487	10686
1464	1540	10690
1450	1486	10695
1510	1425	10700
1537	1386	10704
1545	1384	10710
1559	1403	10714
1564	1519	10719
1553	1543	10724
1574	1507	10728
1633	1417	10733
1643	1399	10738
1580	1401	10742
1548	1536	10747
1533	1535	10752
1459	1456	10757
1403	1401	10762
1407	1378	10766
1418	1372	10771
1412	1415	10776
1484	1463	10780
1573	1428	10785
1560	1424	10790
1509	1389	10795
1498	1381	10800
1529	1405	10804
1577	1612	10809
1589	1538	10814
1577	1445	10818
1575	1367	10823
1538	1342	10828
1530	1337	10832
1521	1397	10838
1523	1534	10842
1498	1538	10847
1471	1453	10852
1482	1370	10856
1494	1351	10861
1479	1348	10866
1488	1358	10870
1568	1398	10875
1586	1474	10880
1528	1460	10885
1437	1431	10890
1419	1395	10894
1433	1378	10899
1525	1448	10904
1578	1684	10908
1571	1567	10913
1538	1408	10918
1494	1376	10923
1463	1369	10928
1432	1387	10932
1447	1442	10937
1412	1519	10942
1413	1443	10946
1456	1429	10951
1478	1431	10956
1467	1451	10960
1431	1474	10966
1456	1492	10970
1506	1497	10975
1542	1491	10980
1532	1496	10984
1492	1508	10989
1472	1586	10994
1470	1623	10998
1491	1546	11003
1507	1545	11008
1481	1524	11013
1451	1590	11018
1375	1663	11022
1346	1642	11027
1397	1606	11032
1470	1574	11036
1519	1568	11041
1526	1575	11046
1489	1619	11051
1497	1696	11056
1535	1681	11060
1567	1672	11065
1483	1708	11070
1428	1632	11074
1434	1715	11079
1458	1793	11084
1533	1646	11088
1588	1630	11094
1571	1611	11098
1532	1621	11103
1518	1633	11108
1496	1660	11112
1418	1797	11117
1440	1805	11122
1506	1733	11126
1594	1658	11131
1615	1655	11136
1600	1750	11141
1536	1709	11146
1531	1706	11150
1590	1843	11155
1650	1761	11160
1612	1682	11164
1501	1667	11169
1492	1608	11174
1619	1584	11179
1686	1576	11184
1571	1784	11188
1360	2013	11193
1300	1693	11198
1377	1647	11202
1418	1641	11207
1446	1657	11212
1475	1686	11216
1586	1624	11222
1583	1821	11226
1489	1838	11231
1371	1776	11236
1333	1718	11240
1377	1579	11245
1418	1469	11250
1542	1438	11254
1559	1584	11259
1492	1919	11264
1469	1790	11269
1424	1792	11274
1446	1778	11278
1405	1466	11283
1452	1450	11288
1446	1790	11292
1344	2045	11297
1268	1703	11302
1247	1561	11307
1276	1635	11312
1376	1549	11316
1397	1588	11321
1315	1723	11326
1298	1723	11330
1340	1580	11335
1386	1659	11340
1401	1617	11344
1408	1660	11350
1453	1465	11354
1493	1388	11359
1537	1632	11364
1512	1663	11368
1398	1721	11373
1322	1531	11378
1313	1526	11382
1346	1714	11387
1377	1446	11392
1411	1338	11397
1447	1389	11402
1467	1309	11406
1523	1389	11411
1467	1462	11416
1347	1439	11420
1321	1511	11425
1372	1382	11430
1397	1298	11435
1377	1288	11440
1388	1220	11444
1339	1201	11449
1318	1305	11454
1312	1465	11458
1318	1414	11463
1358	1230	11468
1375	1335	11472
1313	1498	11478
1232	1431	11482
1219	1429	11487
1223	1299	11492
1204	1185	11496
1182	1327	11501
1233	1595	11506
1271	1346	11510
1294	1212	11515
1340	1247	11520
1370	1389	11525
1436	1376	11530
1485	1378	11534
1447	1437	11539
1370	1607	11544
1296	1651	11548
1271	1550	11553
1381	1481	11558
1412	1322	11563
1351	1327	11568
1317	1426	11572
1357	1486	11577
1358	1322	11582
1306	1165	11586
1288	1190	11591
1390	1310	11596
1444	1415	11600
1410	1630	11606
1331	1322	11610
1227	1315	11615
1256	1425	11620
1400	1421	11624
1487	1369	11629
1469	1441	11634
1436	1489	11638
1381	1735	11643
1454	1478	11648
1622	1548	11653
1640	1539	11658
1487	1508	11662
1380	1442	11667
1340	1592	11672
1433	1477	11676
1551	1508	11681
1512	1556	11686
1390	1458	11691
1404	1463	11696
1429	1496	11700
1441	1540	11705
1493	1549	11710
1614	1545	11714
1665	1405	11719
1696	1488	11724
1706	1530	11728
1716	1796	11734
1602	1526	11738
1485	1583	11743
1454	1504	11748
1612	1511	11752
1683	1550	11757
1614	1594	11762
1532	1517	11766
1499	1506	11771
1494	1537	11776
1513	1559	11781
1505	1501	11786
1510	1590	11790
1542	1534	11795
1568	1508	11800
1580	1587	11804
1613	1601	11809
1633	1543	11814
1587	1577	11819
1545	1513	11824
1589	1491	11828
1714	1492	11833
1685	1518	11838
1593	1664	11842
1661	1516	11847
1702	1461	11852
1622	1442	11856
1557	1426	11862
1540	1417	11866
1549	1416	11871
1573	1430	11876
1617	1438	11880
1714	1443	11885
1755	1457	11890
1706	1438	11894
1655	1426	11899
1647	1411	11904
1646	1455	11909
1688	1421	11914
1727	1414	11918
1699	1415	11923
1652	1419	11928
1638	1440	11932
1648	1436	11937
1678	1460	11942
1717	1458	11947
1732	1451	11952
1697	1441	11956
1657	1473	11961
1638	1501	11966
1639	1518	11970
1630	1451	11975
1624	1414	11980
1637	1401	11984
1645	1406	11990
1694	1441	11994
1754	1495	11999
1759	1514	12004
1650	1459	12008
1553	1424	12013
1555	1456	12018
1627	1535	12022
1667	1460	12027
1619	1422	12032
1542	1398	12037
1494	1387	12042
1489	1392	12046
1497	1452	12051
1511	1480	12056
1517	1431	12060
1516	1418	12065
1517	1409	12070
1544	1426	12075
1634	1582	12080
1656	1545	12084
1597	1488	12089
1514	1444	12094
1505	1415	12098
1536	1399	12103
1528	1439	12108
1500	1627	12112
1441	1514	12118
1435	1465	12122
1433	1392	12127
1442	1361	12132
1463	1364	12136
1476	1433	12141
1498	1488	12146
1497	1540	12150
1472	1430	12155
1451	1391	12160
1459	1373	12165
1514	1400	12170
1557	1535	12174
1616	1650	12179
1617	1482	12184
1549	1415	12188
1496	1384	12193
1498	1387	12198
1508	1426	12203
1501	1512	12208
1467	1628	12212
1427	1451	12217
1446	1391	12222
1503	1369	12226
1546	1364	12231
1549	1393	12236
1540	1499	12240
1542	1530	12246
1579	1443	12250
1507	1407	12255
1473	1387	12260
1495	1433	12264
1522	1634	12269
1482	1681	12274
1483	1501	12278
1512	1400	12283
1487	1360	12288
1482	1349	12293
1465	1452	12298
1452	1545	12302
1457	1450	12307
1451	1442	12312
1382	1431	12316
1343	1391	12321
1353	1387	12326
1388	1406	12331
1398	1549	12336
1418	1553	12340
1538	1457	12345
1583	1420	12350
1541	1418	12354
1524	1465	12359
1617	1627	12364
1690	1621	12368
1629	1481	12374
1543	1422	12378
1472	1412	12383
1439	1418	12388
1443	1429	12392
1467	1456	12397
1466	1588	12402
1482	1546	12406
1475	1501	12411
1494	1481	12417
1527	1470	12421
1530	1488	12426
1520	1675	12430
1530	1589	12435
1562	1547	12440
1558	1557	12444
1493	1501	12449
1483	1503	12454
1490	1524	12459
1547	1559	12464
1579	1660	12468
1583	1752	12473
1515	1596	12478
1426	1591	12482
1377	1568	12487
1439	1580	12492
1564	1621	12496
1585	1771	12502
1512	1835	12506
1515	1629	12511
1529	1705	12516
1551	1632	12520
1584	1558	12525
1614	1552	12530
1660	1570	12534
1704	1650	12539
1603	1669	12545
1486	1682	12549
1427	1558	12554
1453	1525	12558
1503	1518	12563
1557	1550	12568
1555	1857	12572
1502	1918	12577
1447	1742	12582
1431	1603	12587
1448	1631	12592
1425	1540	12596
1399	1476	12601
1394	1473	12606
1454	1481	12610
1551	1527	12615
1500	1488	12620
1384	1475	12624
1352	1449	12630
1396	1441	12634
1445	1643	12639
1391	2018	12644
1243	1758	12648
1231	1716	12653
1318	1716	12658
1347	1475	12662
1384	1432	12667
1449	1453	12673
1513	1786	12677
1460	1977	12682
1396	1864	12686
1429	1837	12691
1457	1633	12696
1448	1479	12700
1408	1430	12705
1398	1441	12710
1437	1887	12715
1446	1821	12720
1359	1738	12724
1386	1743	12729
1439	1576	12734
1441	1597	12738
1451	1439	12743
1460	1385	12748
1484	1554	12752
1490	1635	12758
1410	1491	12763
1307	1503	12767
1404	1530	12772
1544	1558	12776
1553	1365	12781
1517	1491	12786
1518	1794	12790
1533	1542	12795
1486	1510	12801
1445	1436	12805
1455	1391	12810
1497	1394	12814
1599	1210	12819
1628	1209	12824
1475	1619	12828
1333	1490	12833
1346	1297	12838
1468	1229	12843
1603	1341	12848
1645	1388	12852
1612	1294	12857
1532	1435	12862
1497	1612	12866
1473	1528	12871
1419	1594	12876
1353	1569	12880
1334	1475	12886
1373	1432	12890
1490	1562	12895
1503	1540	12900
1407	1359	12904
1344	1415	12909
1337	1415	12914
1416	1423	12918
1506	1469	12923
1507	1394	12929
1489	1463	12933
1455	1450	12938
1416	1200	12942
1481	1436	12947
1605	1631	12952
1591	1314	12956
1509	1386	12961
1479	1361	12966
1485	1477	12971
1509	1531	12976
1509	1228	12980
1536	1369	12985
1584	1371	12990
1572	1227	12994
1556	1520	12999
1530	1377	13004
1591	1131	13008
1564	1136	13014
1548	1328	13018
1546	1622	13023
1529	1423	13028
1519	1493	13032
1506	1398	13037
1470	1308	13042
1457	1514	13046
1497	1540	13051
1622	1425	13057
1720	1336	13061
1711	1461	13066
1600	1547	13070
1453	1506	13075
1429	1523	13080
1509	1493	13084
1546	1507	13089
1514	1397	13094
1520	1449	13099
1572	1419	13104
1587	1524	13108
1589	1669	13113
1718	1529	13118
1777	1604	13122
1729	1613	13127
1608	1583	13132
1532	1539	13136
1513	1495	13142
1689	1548	13147
1800	1540	13151
1732	1512	13156
1594	1452	13160
1495	1451	13165
1504	1643	13170
1591	1491	13174
1668	1421	13179
1684	1487	13185
1699	1594	13189
1637	1584	13194
1589	1530	13198
1595	1651	13203
1710	1577	13208
1878	1631	13212
1878	1592	13217
1719	1470	13222
1650	1508	13227
1637	1629	13232
1636	1470	13236
1639	1496	13241
1618	1433	13246
1586	1441	13250
1587	1403	13255
1606	1565	13260
1632	1440	13264
1647	1479	13270
1682	1452	13274
1720	1476	13279
1807	1412	13284
1947	1437	13288
1908	1426	13293
1769	1416	13298
1701	1477	13302
1688	1446	13307
1686	1406	13313
1694	1374	13317
1700	1363	13322
1713	1366	13326
1719	1380	13331
1731	1395	13336
1743	1399	13340
1752	1403	13345
1758	1409	13350
1758	1431	13355
1771	1501	13360
1785	1510	13364
1778	1481	13369
1752	1469	13374
1734	1428	13378
1709	1456	13383
1692	1548	13388
1722	1525	13392
1755	1415	13398
1739	1369	13402
1702	1358	13407
1708	1363	13412
1725	1419	13416
1716	1489	13421
1697	1481	13426
1691	1430	13430
1643	1393	13435
1610	1381	13441
1614	1382	13445
1652	1538	13450
1631	1523	13454
1582	1446	13459
1549	1383	13464
1560	1360	13468
1588	1366	13473
1634	1406	13478
1658	1656	13483
1608	1576	13488
1536	1469	13492
1490	1386	13497
1480	1359	13502
1511	1352	13506
1567	1503	13511
1631	1484	13516
1666	1414	13520
1623	1361	13526
1543	1346	13530
1468	1349	13535
1393	1411	13540
1415	1536	13544
1510	1619	13549
1607	1459	13554
1586	1391	13558
1522	1363	13563
1526	1354	13569
1577	1379	13573
1592	1600	13578
1650	1630	13582
1638	1422	13587
1567	1375	13592
1479	1346	13596
1430	1337	13601
1428	1368	13606
1431	1559	13611
1414	1627	13616
1387	1448	13620
1370	1389	13625
1419	1347	13630
1484	1346	13634
1492	1399	13639
1556	1641	13644
1659	1518	13648
1644	1403	13654
1562	1349	13658
1482	1334	13663
1462	1340	13668
1463	1429	13672
1440	1721	13677
1338	1528	13682
1281	1452	13686
1321	1361	13691
1393	1341	13697
1435	1346	13701
1447	1430	13706
1436	1680	13710
1445	1553	13715
1450	1414	13720
1408	1362	13724
1384	1343	13729
1428	1347	13734
1453	1430	13739
1474	1509	13744
1537	1515	13748
1608	1411	13753
1563	1359	13758
1489	1348	13762
1463	1350	13767
1504	1411	13772
1572	1596	13776
1599	1484	13782
1551	1392	13787
1486	1358	13791
1443	1351	13796
1402	1367	13800
1339	1407	13805
1341	1592	13810
1418	1529	13814
1446	1489	13819
1420	1404	13825
1384	1390	13829
1399	1401	13834
1348	1422	13838
1337	1478	13843
1424	1526	13848
1480	1498	13852
1481	1446	13857
1470	1435	13862
1455	1445	13867
1440	1510	13872
1396	1758	13876
1386	1566	13881
1442	1497	13886
1488	1470	13890
1474	1469	13895
1375	1492	13900
1305	1535	13904
1360	1562	13910
1435	1538	13914
1482	1515	13919
1511	1509	13924
1495	1517	13928
1494	1534	13933
1525	1545	13938
1536	1564	13942
1560	1574	13947
1550	1544	13953
1566	1548	13957
1555	1557	13962
1477	1578	13966
1410	1638	13971
1445	1622	13976
1540	1583	13980
1586	1569	13985
1592	1571	13990
1628	1673	13995
1590	1792	14000
1488	1726	14004
1359	1631	14009
1411	1575	14014
1566	1544	14018
1686	1532	14023
1776	1626	14028
1668	1829	14032
1573	1875	14038
1571	1818	14043
1590	1652	14047
1553	1615	14052
1501	1485	14056
1491	1514	14061
1540	1743	14066
1594	1826	14070
1549	1777	14075
1502	1645	14081
1437	1544	14085
1490	1504	14090
1552	1657	14094
1619	2009	14099
1550	2046	14104
1381	1881	14108
1324	1803	14113
1295	1666	14118
1283	1626	14123
1273	1723	14128
1284	1874	14132
1382	1851	14137
1446	1774	14142
1483	1711	14146
1411	1731	14151
1404	1610	14156
1429	1447	14160
1507	1494	14166
1562	1836	14170
1506	1807	14175
1406	1627	14180
1412	1773	14184
1434	1779	14189
1438	1629	14194
1430	1786	14198
1414	1597	14203
1460	1369	14209
1502	1636	14213
1387	1801	14218
1273	1632	14222
1252	1780	14227
1321	1686	14232
1360	1635	14236
1396	1568	14241
1326	1439	14246
1340	1557	14251
1342	1598	14256
1277	1503	14260
1154	1571	14265
1089	1458	14270
1190	1291	14274
1360	1435	14279
1413	1483	14284
1370	1345	14288
1288	1408	14294
1262	1302	14298
1223	1325	14303
1250	1476	14308
1259	1555	14312
1244	1458	14317
1245	1449	14322
1311	1246	14326
1392	1277	14331
1403	1593	14337
1392	1456	14341
1332	1281	14346
1262	1319	14350
1274	1409	14355
1357	1201	14360
1463	1217	14364
1429	1228	14369
1369	1479	14374
1265	1412	14379
1211	1391	14384
1252	1516	14388
1304	1582	14393
1289	1448	14398
1277	1411	14402
1374	1535	14407
1406	1509	14412
1347	1414	14416
1178	1515	14422
1085	1472	14426
1106	1405	14431
1212	1387	14436
1289	1421	14440
1398	1431	14445
1474	1381	14450
1469	1316	14454
1453	1423	14459
1479	1485	14465
1528	1295	14469
1472	1410	14474
1432	1571	14478
1402	1286	14483
1389	1371	14488
1458	1294	14492
1480	1213	14497
1463	1407	14502
1386	1511	14507
1259	1478	14512
1216	1531	14516
1289	1446	14521
1354	1419	14526
1375	1426	14530
1356	1531	14535
1349	1477	14540
1415	1348	14544
1433	1445	14550
1364	1430	14555
1276	1682	14559
1355	1484	14564
1422	1421	14568
1379	1472	14573
1399	1423	14578
1429	1567	14582
1394	1702	14587
1326	1444	14593
1293	1555	14597
1414	1665	14602
1688	1601	14606
1679	1485	14611
1519	1618	14616
1354	1532	14620
1306	1503	14625
1334	1633	14630
1349	1714	14635
1353	1503	14640
1442	1525	14644
1528	1538	14649
1492	1584	14654
1419	1648	14658
1404	1581	14663
1566	1615	14668
1645	1542	14672
1566	1595	14678
1432	1548	14683
1418	1613	14687
1497	1621	14692
1541	1757	14696
1510	1703	14701
1441	1608	14706
1422	1657	14710
1427	1583	14715
1440	1641	14721
1470	1660	14725
1529	1595	14730
1615	1574	14734
1654	1692	14739
1590	1740	14744
1539	1654	14748
1546	1648	14753
1607	1606	14758
1600	1564	14763
1560	1778	14768
1521	1616	14772
1506	1620	14777
1520	1553	14782
1529	1508	14786
1533	1524	14791
1602	1524	14796
1672	1498	14800
1632	1486	14806
1556	1495	14810
1482	1509	14815
1465	1502	14820
1474	1486	14824
1489	1494	14829
1513	1488	14834
1531	1505	14838
1544	1516	14843
1551	1496	14849
1555	1467	14853
1563	1453	14858
1564	1468	14862
1563	1574	14867
1563	1531	14872
1568	1472	14876
1576	1452	14881
1580	1454	14886
1598	1453	14891
1632	1497	14896
1638	1519	14900
1609	1481	14905
1583	1428	14910
1556	1410	14914
1546	1432	14919
1612	1502	14924
1668	1514	14928
1654	1447	14934
1594	1406	14938
1561	1393	14943
1552	1396	14948
1551	1451	14952
1600	1486	14957
1649	1465	14962
1626	1439	14966
1545	1420	14971
1499	1419	14977
1506	1452	14981
1608	1650	14986
1639	1561	14990
1539	1474	14995
1351	1411	15000
1326	1385	15004
1369	1443	15009
1372	1466	15014
1363	1513	15019
1366	1516	15024
1379	1416	15028
1387	1368	15033
1380	1351	15038
1347	1362	15042
1361	1407	15047
1427	1497	15052
1508	1473	15056
1486	1409	15062
1373	1390	15067
1334	1416	15071
1369	1600	15076
1403	1621	15080
1491	1461	15085
1511	1403	15090
1459	1376	15094
1404	1357	15099
1340	1352	15105
1249	1403	15109
1139	1560	15114
1137	1547	15118
1274	1425	15123
1396	1376	15128
1460	1341	15132
1454	1338	15137
1384	1390	15142
1376	1524	15147
1548	1481	15152
1614	1409	15156
1546	1358	15161
1497	1365	15166
1513	1609	15170
1516	1612	15175
1541	1478	15180
1530	1368	15184
1492	1328	15190
1373	1338	15194
1273	1359	15199
1223	1376	15204
1243	1498	15208
1324	1566	15213
1376	1405	15218
1419	1365	15222
1440	1317	15227
1436	1313	15233
1431	1329	15237
1409	1445	15242
1408	1592	15246
1421	1478	15251
1471	1396	15256
1486	1347	15260
1462	1334	15265
1450	1351	15270
1477	1497	15275
1568	1580	15280
1611	1471	15284
1553	1377	15289
1495	1353	15294
1431	1350	15298
1371	1361	15303
1383	1393	15308
1453	1625	15312
1469	1544	15318
1451	1431	15323
1397	1380	15327
1357	1365	15332
1380	1380	15336
1458	1592	15341
1492	1558	15346
1532	1432	15350
1550	1389	15355
1537	1374	15361
1517	1352	15365
1518	1363	15370
1539	1530	15374
1528	1725	15379
1499	1491	15384
1518	1416	15388
1560	1398	15393
1580	1400	15398
1593	1412	15403
1604	1426	15408
1632	1437	15412
1612	1451	15417
1518	1474	15422
1493	1484	15426
1543	1490	15431
1614	1497	15436
1608	1499	15440
1552	1518	15446
1487	1556	15451
1492	1535	15455
1573	1539	15460
1640	1537	15464
1654	1546	15469
1580	1622	15474
1504	1705	15478
1564	1643	15483
1647	1584	15489
1658	1546	15493
1635	1547	15498
1557	1627	15502
1540	1718	15507
1580	1729	15512
1596	1607	15516
1498	1540	15521
1442	1524	15526
1508	1602	15531
1522	1785	15536
1456	1667	15540
1470	1567	15545
1529	1558	15550
1521	1609	15554
1539	1608	15559
1590	1566	15564
1585	1559	15568
1580	1819	15574
1509	1958	15579
1406	1862	15583
1251	1645	15588
1301	1706	15592
1391	1851	15597
1364	1641	15602
1349	1802	15606
1428	1892	15611
1488	1785	15617
1452	1502	15621
1425	1687	15626
1444	1798	15630
1406	1654	15635
1414	1679	15640
1495	1737	15644
1608	1792	15649
1548	1640	15654
1445	1649	15659
1341	1628	15664
1363	1728	15668
1438	1748	15673
1469	1525	15678
1479	1583	15682
1484	1582	15687
1506	1621	15692
1538	1578	15696
1498	1651	15702
1418	1605	15707
1451	1434	15711
1473	1503	15716
1490	1891	15720
1507	1619	15725
1524	1442	15730
1540	1542	15734
1558	1506	15739
1586	1607	15745
1599	1601	15749
1539	1579	15754
1420	1510	15758
1311	1423	15763
1223	1225	15768
1278	1217	15772
1378	1577	15777
1438	1496	15782
1457	1583	15787
1538	1665	15792
1468	1255	15796
1343	1099	15801
1364	1417	15806
1454	1547	15810
1504	1414	15815
1517	1443	15820
1463	1410	15824
1429	1412	15830
1531	1306	15834
1675	1289	15839
1720	1409	15844
1737	1322	15848
1703	1214	15853
1664	1276	15858
1486	1364	15862
1382	1307	15867
1455	1325	15873
1593	1523	15877
1633	1474	15882
1615	1404	15886
1640	1438	15891
1619	1422	15896
1547	1425	15900
1508	1407	15905
1533	1423	15910
1529	1542	15915
1437	1387	15920
1370	1311	15924
1416	1530	15929
1459	1485	15934
1450	1317	15938
1435	1350	15943
1417	1359	15948
1471	1330	15952
1572	1287	15958
1630	1463	15963
1629	1542	15967
1592	1500	15972
1521	1455	15976
1492	1305	15981
1457	1349	15986
1485	1433	15990
1543	1278	15995
1579	1400	16001
1531	1399	16005
1520	1351	16010
1638	1412	16014
1701	1386	16019
1732	1284	16024
1759	1357	16028
1738	1543	16033
1705	1366	16038
1648	1363	16043
1501	1337	16048
1438	1471	16052
1436	1344	16057
1444	1287	16062
1467	1385	16066
1454	1420	16071
1462	1620	16076
1411	1401	16080
1409	1336	16086
1479	1357	16090
1476	1489	16095
1487	1433	16100
1474	1420	16104
1432	1372	16109
1503	1525	16114
1563	1646	16118
1523	1561	16123
1445	1599	16129
1419	1542	16133
1447	1519	16138
1490	1508	16142
1532	1508	16147
1520	1495	16152
1457	1550	16156
1387	1542	16161
1404	1617	16166
1603	1580	16171
1776	1559	16176
1750	1595	16180
1616	1457	16185
1509	1527	16190
1499	1568	16194
1644	1501	16199
1694	1464	16204
1622	1557	16208
1522	1622	16214
1474	1577	16218
1529	1577	16223
1652	1728	16228
1630	1627	16232
1571	1573	16237
1588	1575	16242
1627	1590	16246
1645	1518	16251
1602	1519	16257
1589	1568	16261
1614	1644	16266
1703	1547	16270
1783	1584	16275
1756	1620	16280
1706	1810	16284
1672	1611	16289
1708	1618	16294
1752	1559	16299
1820	1528	16304
1906	1574	16308
1880	1549	16313
1739	1574	16318
1632	1533	16322
1574	1473	16327
1560	1452	16332
1568	1445	16336
1587	1444	16342
1608	1453	16346
1629	1532	16351
1655	1537	16356
1662	1482	16360
1655	1464	16365
1674	1492	16370
1702	1712	16374
1728	1624	16379
1738	1553	16385
1762	1500	16389
1791	1455	16394
1788	1435	16398
1753	1426	16403
1715	1425	16408
1694	1428	16412
1686	1438	16417
1674	1460	16422
1662	1487	16427
1669	1462	16432
1672	1455	16436
1675	1449	16441
1684	1487	16446
1719	1514	16450
1753	1496	16455
1720	1558	16460
1656	1517	16464
1625	1451	16470
1635	1429	16474
1676	1450	16479
1695	1445	16484
1678	1437	16488
1638	1425	16493
1596	1412	16498
1562	1410	16502
1534	1437	16507
1544	1512	16513
1574	1531	16517
1578	1468	16522
1572	1431	16526
1557	1403	16531
1564	1417	16536
1612	1559	16540
1646	1499	16545
1639	1466	16550
1566	1417	16555
1480	1408	16560
1432	1406	16564
1426	1403	16569
1505	1436	16574
1481	1491	16578
1388	1469	16583
1351	1433	16588
1376	1399	16592
1399	1387	16598
1453	1421	16603
1510	1600	16607
1500	1502	16612
1462	1428	16616
1446	1385	16621
1449	1376	16626
1531	1438	16630
1649	1571	16635
1644	1471	16641
1537	1453	16645
1421	1408	16650
1391	1378	16654
1392	1367	16659
1371	1373	16664
1388	1581	16668
1415	1572	16673
1399	1490	16678
1400	1400	16683
1382	1356	16688
1392	1344	16692
1383	1422	16697
1466	1541	16702
1598	1441	16706
1662	1383	16711
1588	1359	16716
1500	1349	16720
1446	1355	16726
1492	1471	16730
1554	1579	16735
1632	1463	16740
1613	1440	16744
1531	1393	16749
1432	1351	16754
1348	1337	16758
1332	1371	16763
1314	1614	16769
1305	1588	16773
1315	1421	16778
1345	1370	16782
1387	1346	16787
1379	1348	16792
1356	1383	16796
1382	1510	16801
1446	1517	16806
1477	1412	16811
1484	1370	16816
1453	1349	16820
1420	1350	16825
1463	1426	16830
1486	1651	16834
1516	1639	16839
1502	1420	16844
1446	1355	16848
1409	1331	16854
1399	1343	16858
1410	1478	16863
1451	1548	16868
1458	1492	16872
1436	1432	16877
1429	1360	16882
1441	1335	16886
1467	1330	16891
1475	1369	16897
1497	1466	16901
1529	1402	16906
1520	1349	16910
1433	1344	16915
1355	1349	16920
1371	1361	16924
1402	1385	16929
1409	1494	16934
1484	1547	16939
1557	1420	16944
1581	1379	16948
1531	1364	16953
1444	1372	16958
1423	1389	16962
1446	1467	16967
1471	1464	16972
1446	1437	16976
1401	1410	16982
1360	1409	16986
1326	1420	16991
1243	1462	16996
1280	1618	17000
1388	1606	17005
1459	1486	17010
1511	1459	17014
1530	1486	17019
1550	1531	17025
1546	1512	17029
1555	1510	17034
1541	1610	17038
1489	1553	17043
1458	1545	17048
1437	1490	17052
1410	1465	17057
1376	1474	17062
1338	1519	17067
1316	1568	17072
1343	1515	17076
1429	1490	17081
1515	1480	17086
1566	1541	17090
1553	1637	17095
1497	1613	17100
1466	1510	17104
1470	1506	17110
1499	1505	17115
1533	1551	17119
1560	1628	17124
1557	1530	17128
1540	1511	17133
1492	1506	17138
1427	1510	17142
1367	1545	17147
1369	1635	17153
1421	1684	17157
1463	1589	17162
1400	1592	17166
1289	1587	17171
1302	1530	17176
1391	1537	17180
1495	1631	17185
1583	1750	17190
1640	1772	17195
1588	1642	17200
1533	1524	17204
1502	1485	17209
1581	1470	17214
1645	1468	17218
1664	1492	17223
1548	1801	17228
1448	1773	17232
1332	1716	17238
1304	1654	17242
1368	1639	17247
1469	1713	17252
1467	1641	17256
1400	1720	17261
1321	1716	17266
1294	1794	17270
1359	1533	17275
1437	1551	17281
1465	1680	17285
1561	1644	17290
1514	1548	17294
1443	1407	17299
1456	1548	17304
1512	1989	17308
1455	1974	17313
1297	1542	17318
1267	1365	17323
1329	1280	17328
1443	1304	17332
1440	1778	17337
1399	2047	17342
1344	1581	17346
1354	1639	17351
1357	1668	17356
1389	1361	17360
1452	1545	17366
1396	1794	17370
1341	1669	17375
1413	1394	17380
1561	1409	17384
1607	1701	17389
1495	1746	17394
1357	1474	17398
1251	1279	17403
1249	1383	17409
1370	1497	17413
1449	1367	17418
1481	1765	17422
1424	1861	17427
1381	1476	17432
1385	1396	17436
1402	1373	17441
1394	1216	17446
1362	1231	17451
1254	1679	17456
1237	1636	17460
1236	1327	17465
1302	1399	17470
1345	1531	17474
1373	1444	17479
1438	1432	17484
1455	1390	17488
1446	1422	17494
1387	1654	17498
1253	1635	17503
1235	1428	17508
1325	1342	17512
1342	1319	17517
1283	1418	17522
1356	1415	17526
1451	1336	17531
1513	1359	17537
1444	1497	17541
1371	1539	17546
1477	1330	17550
1533	1208	17555
1521	1281	17560
1491	1442	17564
1474	1522	17569
1487	1413	17574
1569	1260	17579
1533	1497	17584
1363	1531	17588
1279	1526	17593
1350	1621	17598
1408	1478	17602
1341	1396	17607
1279	1446	17612
1293	1461	17616
1409	1391	17622
1447	1654	17627
1395	1675	17631
1387	1478	17636
1479	1535	17640
1572	1446	17645
1602	1367	17650
1539	1430	17654
1548	1524	17659
1581	1477	17665
1558	1546	17669
1548	1522	17674
1500	1391	17678
1537	1519	17683
1505	1570	17688
1429	1402	17692
1446	1312	17697
1567	1490	17702
1628	1524	17707
1531	1605	17712
1511	1513	17716
1509	1491	17721
1465	1445	17726
1487	1590	17730
1485	1509	17735
1420	1503	17740
1415	1591	17744
1418	1440	17750
1398	1490	17754
1366	1390	17759
1450	1434	17764
1527	1575	17768
1497	1560	17773
1428	1776	17778
1344	1580	17782
1345	1501	17787
1414	1451	17793
1478	1531	17797
1568	1503	17802
1692	1477	17806
1778	1489	17811
1732	1526	17816
1598	1551	17820
1474	1702	17825
1404	1705	17830
1417	1496	17835
1506	1453	17840
1590	1473	17844
1582	1515	17849
1495	1657	17854
1481	1592	17858
1526	1660	17863
1531	1652	17868
1538	1666	17872
1562	1578	17878
1714	1671	17883
1769	1533	17887
1694	1514	17892
1654	1630	17896
1632	1567	17901
1580	1729	17906
1508	1594	17910
1484	1554	17915
1534	1494	17921
1575	1520	17925
1549	1620	17930
1512	1544	17934
1497	1575	17939
1511	1514	17944
1518	1569	17948
1527	1565	17953
1604	1554	17958
1741	1518	17963
1844	1688	17968
1789	1543	17972
1680	1540	17977
1582	1517	17982
1529	1470	17986
1527	1454	17991
1548	1447	17996
1573	1442	18000
1585	1442	18006
1600	1412	18011
1620	1389	18015
1634	1380	18020
1644	1398	18024
1670	1460	18029
1703	1574	18034
1703	1469	18038
1696	1432	18043
1681	1432	18049
1669	1404	18053
1658	1468	18058
1637	1541	18062
1628	1499	18067
1638	1407	18072
1670	1358	18076
1680	1348	18081
1684	1391	18086
1703	1498	18091
1753	1450	18096
1764	1390	18100
1725	1368	18105
1683	1364	18110
1670	1372	18114
1671	1405	18119
1691	1522	18124
1674	1497	18128
1630	1487	18134
1586	1448	18138
1577	1426	18143
1585	1454	18148
1601	1466	18152
1585	1518	18157
1527	1502	18162
1468	1432	18166
1445	1411	18171
1463	1402	18177
1460	1465	18181
1479	1576	18186
1481	1582	18190
1422	1460	18195
1362	1407	18200
1353	1389	18204
1419	1430	18209
1569	1688	18214
1624	1606	18219
1546	1492	18224
1383	1438	18228
1274	1397	18233
1296	1375	18238
1365	1464	18242
1391	1528	18247
1325	1491	18252
1271	1464	18256
1284	1389	18262
1315	1349	18266
1317	1360	18271
1326	1500	18276
1419	1661	18280
1498	1517	18285
1474	1395	18290
1394	1348	18294
1345	1342	18299
1421	1534	18305
1469	1602	18309
1428	1590	18314
1325	1506	18318
1292	1413	18323
1309	1342	18328
1324	1326	18332
1326	1433	18337
1273	1479	18342
1216	1433	18347
1211	1366	18352
1247	1349	18356
1295	1333	18361
1327	1344	18366
1327	1508	18370
1276	1653	18375
1295	1533	18380
1375	1396	18384
1473	1376	18390
1505	1344	18394
1456	1343	18399
1424	1391	18404
1474	1588	18408
1521	1565	18413
1470	1404	18418
1391	1349	18422
1285	1340	18427
1282	1468	18433
1324	1527	18437
1389	1512	18442
1343	1401	18446
1254	1364	18451
1229	1323	18456
1284	1313	18460
1358	1346	18465
1412	1558	18470
1429	1539	18475
1449	1397	18480
1440	1344	18484
1431	1312	18489
1436	1315	18494
1403	1481	18498
1409	1836	18503
1421	1594	18508
1409	1374	18512
1356	1324	18518
1333	1308	18522
1362	1304	18527
1413	1321	18532
1444	1544	18536
1476	1684	18541
1503	1388	18546
1461	1326	18550
1410	1309	18555
1398	1313	18561
1443	1326	18565
1526	1337	18570
1592	1493	18574
1581	1678	18579
1530	1457	18584
1501	1375	18588
1490	1400	18593
1479	1429	18598
1442	1607	18603
1420	1624	18608
1458	1418	18612
1494	1393	18617
1489	1362	18622
1440	1365	18626
1389	1384	18631
1343	1413	18636
1355	1479	18640
1413	1466	18646
1464	1491	18650
1425	1458	18655
1356	1507	18660
1293	1714	18664
1335	1697	18669
1436	1568	18674
1497	1524	18678
1509	1480	18683
1497	1414	18689
1495	1412	18693
1482	1515	18698
1388	1559	18702
1360	1558	18707
1358	1551	18712
1393	1474	18716
1416	1486	18721
1442	1479	18726
1483	1500	18731
1508	1590	18736
1534	1757	18740
1526	1707	18745
1495	1763	18750
1466	1625	18754
1499	1469	18759
1560	1508	18764
1579	1531	18768
1594	1613	18774
1567	1645	18778
1540	1599	18783
1455	1652	18788
1397	1597	18792
1457	1568	18797
1531	1501	18802
1546	1540	18806
1555	1788	18811
1576	1811	18817
1530	1914	18821
1487	1855	18826
1467	1582	18830
1411	1437	18835
1412	1596	18840
1384	1583	18844
1344	1643	18849
1339	1829	18854
1373	1722	18859
1365	1545	18864
1311	1656	18868
1197	1705	18873
1138	1580	18878
1228	1587	18882
1344	1700	18887
1426	1748	18892
1365	1512	18896
1240	1440	18902
1202	1563	18907
1296	1342	18911
1372	1426	18916
1474	1835	18920
1545	1778	18925
1532	1650	18930
1403	1617	18934
1344	1533	18939
1372	1643	18945
1446	1785	18949
1442	1649	18954
1316	1486	18958
1285	1466	18963
1330	1553	18968
1448	1741	18972
1493	1599	18977
1448	1495	18982
1394	1489	18987
1447	1601	18992
1564	1712	18996
1627	1602	19001
1519	1628	19006
1355	1655	19010
1346	1448	19015
1424	1334	19020
1496	1430	19024
1551	1489	19030
1514	1449	19035
1449	1323	19039
1406	1251	19044
1468	1370	19048
1506	1480	19053
1495	1611	19058
1418	1524	19062
1392	1347	19067
1384	1217	19073
1436	1260	19077
1442	1554	19082
1445	1577	19086
1430	1303	19091
1426	1221	19096
1516	1386	19100
1613	1472	19105
1622	1442	19110
1537	1350	19115
1440	1431	19120
1351	1458	19124
1442	1454	19129
1537	1455	19134
1567	1493	19138
1522	1285	19143
1544	1321	19148
1602	1566	19152
1533	1437	19158
1447	1300	19163
1452	1327	19167
1498	1567	19172
1479	1504	19176
1409	1303	19181
1350	1315	19186
1353	1350	19190
1428	1429	19195
1454	1483	19201
1448	1525	19205
1574	1490	19210
1731	1476	19214
1817	1489	19219
1796	1361	19224
1648	1286	19228
1602	1592	19233
1637	1547	19238
1629	1336	19243
1605	1460	19248
1590	1664	19252
1575	1441	19257
1616	1463	19262
1669	1625	19266
1673	1531	19271
1596	1492	19276
1594	1456	19280
1597	1403	19286
1551	1375	19291
1559	1407	19295
1598	1548	19300
1595	1517	19304
1529	1386	19309
1539	1460	19314
1528	1538	19318
1469	1387	19323
1492	1440	19329
1612	1554	19333
1629	1627	19338
1546	1514	19342
1517	1362	19347
1588	1536	19352
1606	1744	19356
1524	1444	19361
1424	1436	19366
1556	1593	19371
1680	1491	19376
1752	1360	19380
1802	1398	19385
1717	1573	19390
1636	1428	19394
1667	1446	19399
1710	1575	19404
1694	1588	19408
1606	1468	19414
1647	1454	19419
1737	1474	19423
1687	1595	19428
1530	1670	19432
1439	1737	19437
1566	1534	19442
1718	1465	19446
1777	1562	19451
1719	1599	19457
1590	1434	19461
1509	1477	19466
1509	1499	19470
1604	1659	19475
1816	1738	19480
1889	1663	19484
1776	1500	19489
1718	1575	19494
1723	1609	19499
1789	1629	19504
1909	1729	19508
1896	1562	19513
1752	1594	19518
1628	1571	19522
1568	1627	19527
1591	1575	19532
1688	1558	19536
1679	1443	19542
1609	1451	19547
1544	1584	19551
1555	1593	19556
1636	1509	19560
1741	1465	19565
1837	1615	19570
1980	1557	19574
1966	1616	19579
1827	1539	19585
1725	1607	19589
1686	1516	19594
1678	1575	19598
1630	1471	19603
1620	1548	19608
1700	1579	19612
1749	1621	19617
1741	1629	19622
1740	1437	19627
1684	1365	19632
1619	1343	19636
1551	1328	19641
1531	1376	19646
1558	1334	19650
1593	1322	19655
1623	1413	19660
1648	1468	19664
1659	1453	19670
1655	1390	19675
1659	1362	19679
1680	1352	19684
1715	1360	19688
1757	1360	19693
1764	1378	19698
1737	1382	19702
1715	1390	19707
1712	1411	19713
1712	1403	19717
1708	1404	19722
1710	1416	19726
1730	1417	19731
1736	1423	19736
1735	1431	19740
1723	1457	19745
1694	1510	19750
1681	1506	19755
1696	1484	19760
1697	1435	19765
1685	1410	19769
1683	1406	19774
1727	1469	19778
1773	1554	19783
1770	1481	19788
1694	1442	19792
1619	1423	19798
1582	1404	19803
1588	1414	19807
1623	1493	19812
1656	1595	19816
1659	1476	19821
1609	1415	19826
1555	1378	19830
1515	1368	19835
1509	1378	19841
1544	1470	19845
1604	1441	19850
1663	1418	19854
1639	1407	19859
1585	1405	19864
1664	1431	19868
1750	1550	19873
1700	1671	19878
1526	1532	19883
1382	1447	19888
1320	1390	19892
1323	1356	19897
1367	1348	19902
1423	1452	19906
1453	1598	19911
1436	1469	19916
1371	1387	19920
1338	1337	19926
1357	1328	19931
1420	1372	19935
1529	1527	19940
1633	1497	19944
1570	1400	19949
1439	1354	19954
1416	1335	19958
1428	1347	19963
1471	1364	19969
1577	1389	19973
1582	1415	19978
1446	1450	19982
1272	1421	19987
1197	1344	19992
1176	1317	19996
1136	1336	20001
1147	1440	20006
1298	1470	20011
1401	1396	20016
1396	1326	20021
1369	1306	20025
1388	1303	20030
1421	1378	20034
1434	1467	20039
1469	1574	20044
1552	1554	20048
1609	1398	20054
1600	1347	20059
1537	1319	20063
1456	1334	20068
1408	1487	20072
1456	1512	20077
1521	1398	20082
1525	1344	20086
1477	1301	20091
1422	1284	20097
1399	1278	20101
1375	1289	20106
1360	1381	20110
1336	1464	20115
1358	1421	20120
1368	1325	20124
1379	1292	20129
1387	1283	20134
1382	1418	20139
1358	1497	20144
1301	1435	20149
1300	1355	20153
1314	1376	20158
1391	1352	20162
1475	1314	20167
1570	1372	20172
1584	1535	20176
1589	1478	20182
1573	1337	20187
1522	1288	20191
1454	1278	20196
1393	1287	20200
1370	1298	20205
1336	1342	20210
1295	1442	20214
1294	1379	20219
1303	1346	20225
1323	1318	20229
1362	1318	20234
1396	1342	20238
1451	1387	20243
1559	1478	20248
1556	1449	20252
1479	1387	20257
1415	1354	20262
1445	1349	20267
1473	1384	20272
1536	1474	20277
1587	1604	20281
1573	1475	20286
1542	1426	20290
1483	1393	20295
1428	1355	20300
1377	1354	20304
1324	1379	20310
1309	1457	20315
1331	1494	20319
1400	1404	20324
1456	1391	20328
1442	1402	20333
1384	1502	20338
1388	1529	20342
1492	1476	20347
1550	1464	20353
1551	1417	20357
1529	1430	20362
1477	1521	20366
1419	1620	20371
1374	1553	20376
1384	1459	20380
1420	1439	20385
1469	1434	20390
1469	1466	20395
1441	1489	20400
1431	1504	20405
1449	1465	20409
1475	1462	20414
1504	1510	20418
1516	1574	20423
1498	1508	20428
1501	1495	20432
1507	1476	20438
1492	1479	20443
1487	1543	20447
1504	1703	20452
1528	1701	20456
1570	1624	20461
1557	1633	20466
1506	1513	20470
1482	1469	20475
1478	1478	20481
1467	1610	20485
1448	1796	20490
1411	1609	20494
1417	1518	20499
1369	1479	20504
1324	1611	20508
1340	1928	20513
1473	1830	20518
1603	1674	20523
1627	1629	20528
1576	1614	20532
1523	1535	20537
1501	1558	20542
1519	1547	20546
1604	1587	20551
1606	1683	20556
1533	1736	20560
1395	1636	20566
1295	1767	20571
1213	1755	20575
1219	1496	20580
1310	1570	20584
1480	1759	20589
1572	1571	20594
1601	1447	20598
1512	1421	20603
1495	1426	20609
1561	1427	20613
1577	1722	20618
1466	1974	20622
1415	1687	20627
1459	1786	20632
1541	1850	20636
1559	1500	20641
1466	1413	20646
1322	1523	20651
1261	1591	20656
1265	1696	20660
1300	1637	20665
1321	1619	20670
1355	1615	20674
1346	1629	20679
1357	1516	20684
1362	1296	20688
1430	1169	20694
1471	1212	20699
1491	1800	20703
1396	2038	20708
1297	1542	20712
1233	1600	20717
1222	1731	20722
1266	1590	20726
1354	1530	20731
1415	1505	20737
1454	1512	20741
1448	1621	20746
1442	1763	20750
1453	1712	20755
1444	1493	20760
1373	1363	20764
1329	1283	20769
1325	1238	20774
1423	1431	20779
1426	1779	20784
1349	1709	20789
1169	1359	20793
1136	1430	20798
1276	1553	20802
1444	1452	20807
1447	1567	20812
1410	1649	20816
1455	1593	20822
1476	1479	20827
1379	1449	20831
1345	1532	20836
1410	1420	20840
1533	1167	20845
1555	1321	20850
1443	1615	20854
1375	1544	20859
1364	1437	20865
1421	1406	20869
1448	1498	20874
1398	1529	20878
1317	1452	20883
1332	1310	20888
1365	1503	20892
1350	1598	20897
1271	1355	20902
1235	1283	20907
1296	1541	20912
1395	1482	20916
1452	1307	20921
1496	1314	20926
1493	1450	20930
1381	1524	20935
1381	1428	20940
1445	1308	20944
1461	1432	20950
1395	1560	20955
1354	1395	20959
1395	1250	20964
1412	1224	20968
1453	1415	20973
1451	1617	20978
1431	1338	20982
1399	1333	20987
1519	1642	20993
1515	1692	20997
1427	1468	21002
1300	1365	21006
1323	1553	21011
1427	1587	21016
1440	1484	21020
1309	1530	21025
1264	1619	21030
1241	1476	21035
1263	1534	21040
1277	1610	21044
1308	1640	21049
1379	1441	21054
1420	1407	21058
1343	1637	21063
1171	1568	21068
1115	1513	21072
1228	1516	21078
1306	1575	21083
1319	1644	21087
1311	1533	21092
1320	1364	21096
1380	1438	21101
1387	1524	21106
1317	1519	21110
1259	1485	21115
1348	1421	21121
1434	1357	21125
1410	1549	21130
1307	1589	21134
1295	1573	21139
1339	1508	21144
1305	1486	21148
1278	1619	21153
1275	1587	21158
1377	1557	21163
1464	1396	21168
1426	1388	21172
1350	1399	21177
1325	1437	21182
1327	1615	21186
1298	1579	21191
1278	1451	21196
1296	1389	21200
1401	1362	21206
1518	1502	21211
1634	1588	21215
1714	1684	21220
1613	1538	21224
1453	1431	21229
1381	1438	21234
1464	1573	21238
1706	1601	21243
1790	1591	21249
1632	1565	21253
1409	1579	21258
1253	1592	21262
1240	1548	21267
1302	1441	21272
1401	1423	21276
1450	1467	21281
1432	1695	21286
1405	1549	21291
1431	1545	21296
1454	1555	21300
1485	1579	21305
1580	1476	21310
1600	1473	21314
1579	1466	21319
1680	1581	21324
1719	1516	21328
1665	1519	21334
1565	1440	21339
1475	1490	21343
1515	1501	21348
1625	1407	21352
1593	1348	21357
1472	1347	21362
1343	1343	21366
1273	1359	21371
1273	1346	21377
1317	1345	21381
1374	1387	21386
1387	1358	21390
1403	1345	21395
1413	1330	21400
1411	1349	21404
1411	1365	21409
1516	1637	21414
1594	1488	21419
1557	1387	21424
1480	1348	21428
1404	1341	21433
1380	1339	21438
1384	1345	21442
1412	1362	21447
1439	1350	21452
1461	1350	21456
1476	1355	21462
1479	1362	21467
1485	1371	21471
1502	1373	21476
1501	1376	21480
1494	1381	21485
1478	1389	21490
1466	1397	21494
1461	1405	21499
1451	1421	21505
1439	1441	21509
1436	1451	21514
1438	1472	21518
1457	1441	21523
1473	1434	21528
1465	1423	21532
1461	1414	21537
1460	1415	21542
1461	1426	21547
1477	1435	21552
1481	1429	21556
1456	1418	21561
1411	1416	21566
1423	1484	21570
1452	1502	21575
1448	1441	21580
1392	1455	21584
1316	1420	21590
1283	1395	21595
1291	1459	21599
1275	1452	21604
1282	1485	21608
1285	1431	21613
1251	1397	21618
1231	1378	21622
1306	1363	21627
1372	1411	21633
1375	1402	21637
1304	1423	21642
1245	1409	21646
1215	1363	21651
1199	1337	21656
1211	1335	21660
1222	1450	21665
1231	1477	21670
1265	1408	21675
1275	1373	21680
1263	1352	21685
1249	1347	21689
1207	1384	21694
1152	1475	21698
1176	1595	21703
1270	1447	21708
1296	1365	21712
1232	1315	21718
1179	1299	21723
1178	1337	21727
1214	1355	21732
1285	1335	21736
1334	1341	21741
1388	1329	21746
1411	1306	21750
1401	1374	21755
1378	1469	21761
1434	1499	21765
1601	1445	21770
1622	1407	21774
1494	1448	21779
1320	1382	21784
1198	1316	21788
1190	1293	21793
1246	1335	21798
1341	1449	21803
1409	1400	21808
1358	1329	21813
1276	1293	21817
1278	1269	21822
1295	1265	21826
1283	1292	21831
1266	1421	21836
1280	1398	21840
1279	1306	21846
1274	1283	21851
1261	1282	21855
1220	1378	21860
1154	1520	21864
1133	1690	21869
1203	1488	21874
1286	1345	21878
1355	1285	21883
1467	1259	21889
1541	1309	21893
1566	1536	21898
1570	1410	21902
1480	1319	21907
1348	1306	21912
1271	1288	21916
1235	1248	21921
1256	1233	21926
1327	1239	21931
1340	1350	21936
1362	1479	21940
1361	1328	21945
1364	1263	21950
1375	1248	21954
1404	1256	21959
1426	1361	21964
1424	1450	21968
1424	1396	21974
1406	1319	21979
1401	1288	21983
1444	1289	21988
1420	1300	21992
1344	1313	21997
1346	1319	22002
1432	1356	22006
1451	1404	22011
1435	1363	22017
1409	1334	22021
1421	1479	22026
1434	1612	22030
1413	1411	22035
1366	1350	22040
1328	1331	22044
1331	1319	22049
1374	1342	22054
1369	1397	22059
1316	1552	22064
1318	1551	22069
1337	1403	22073
1352	1371	22078
1383	1357	22082
1406	1359	22087
1431	1387	22092
1394	1537	22096
1411	1571	22102
1443	1510	22107
1456	1481	22111
1460	1466	22116
1482	1564	22120
1495	1628	22125
1504	1439	22130
1528	1394	22134
1509	1388	22139
1476	1400	22145
1464	1414	22149
1404	1428	22154
1330	1433	22158
1360	1433	22163
1484	1434	22168
1574	1460	22172
1602	1519	22177
1593	1515	22182
1552	1509	22187
1468	1489	22192
1471	1476	22196
1522	1489	22201
1562	1526	22206
1542	1539	22210
1461	1485	22215
1413	1493	22220
1430	1512	22224
1412	1554	22230
1362	1709	22235
1397	1613	22239
1491	1541	22244
1560	1530	22248
1574	1578	22253
1591	1579	22258
1554	1648	22262
1551	1722	22267
1502	1574	22273
1428	1591	22277
1389	1523	22282
1392	1519	22286
1476	1603	22291
1516	1577	22296
1551	1506	22300
1576	1471	22305
1548	1510	22310
1488	1678	22315
1493	1899	22320
1472	1676	22324
1438	1608	22329
1447	1623	22334
1517	1764	22338
1554	1794	22343
1516	1685	22348
1434	1598	22352
1480	1566	22358
1478	1725	22363
1501	1598	22367
1583	1618	22372
1591	1745	22376
1562	1786	22381
1510	1622	22386
1501	1546	22390
1567	1666	22395
1550	1813	22401
1562	1765	22405
1553	1599	22410
1543	1658	22414
1468	1796	22419
1454	1892	22424
1518	1849	22428
1511	1781	22433
1412	1742	22438
1356	1750	22443
1307	1634	22448
1313	1608	22452
1365	1592	22457
1471	1671	22462
1492	1716	22466
1391	1702	22471
1335	1639	22476
1410	1706	22480
1539	1747	22486
1622	1649	22491
1595	1489	22495
1390	1471	22500
1251	1520	22504
1211	1409	22509
1306	1596	22514
1426	1727	22518
1520	1533	22523
1542	1511	22529
1490	1608	22533
1447	1697	22538
1481	1743	22542
1567	1635	22547
1627	1628	22552
1621	1729	22556
1631	1634	22561
1605	1747	22566
1566	1747	22571
1632	1523	22576
1673	1571	22580
1675	1838	22585
1589	1647	22590
1547	1417	22594
1588	1591	22599
1601	1669	22604
1567	1570	22608
1453	1482	22614
1288	1498	22619
1213	1486	22623
1330	1531	22628
1557	1672	22632
1705	1509	22637
1700	1354	22642
1558	1565	22646
1547	1741	22651
1630	1546	22657
1708	1515	22661
1688	1575	22666
1665	1521	22670
1561	1293	22675
1502	1280	22680
1468	1547	22684
1527	1698	22689
1545	1525	22694
1549	1542	22699
1540	1548	22704
1553	1424	22708
1550	1377	22713
1548	1575	22718
1659	1684	22722
1741	1499	22727
1720	1499	22732
1557	1483	22736
1441	1534	22742
1438	1570	22747
1512	1459	22751
1521	1478	22756
1456	1541	22760
1492	1550	22765
1634	1559	22770
1727	1525	22774
1654	1411	22779
1544	1516	22785
1381	1533	22789
1331	1272	22794
1512	1342	22798
1711	1600	22803
1680	1710	22808
1615	1476	22812
1671	1383	22817
1705	1488	22822
1620	1549	22827
1531	1527	22832
1535	1587	22836
1595	1592	22841
1555	1579	22846
1460	1693	22850
1465	1620	22855
1563	1419	22860
1687	1419	22864
1717	1550	22870
1667	1660	22875
1640	1775	22879
1626	1593	22884
1576	1556	22888
1586	1625	22893
1572	1512	22898
1592	1509	22902
1618	1615	22907
1600	1633	22913
1501	1512	22917
1479	1503	22922
1527	1534	22926
1581	1368	22931
1544	1390	22936
1549	1446	22940
1644	1430	22945
1684	1400	22950
1583	1581	22955
1390	1689	22960
1362	1523	22965
1509	1410	22969
1664	1358	22974
1709	1266	22978
1683	1328	22983
1653	1537	22988
1661	1455	22992
1640	1498	22998
1667	1532	23003
1702	1524	23007
1720	1490	23012
1707	1447	23016
1678	1422	23021
1701	1503	23026
1681	1495	23030
1588	1508	23035
1529	1444	23041
1626	1354	23045
1671	1340	23050
1636	1377	23054
1626	1425	23059
1643	1431	23064
1605	1371	23068
1531	1348	23073
1471	1352	23078
1493	1438	23083
1646	1553	23088
1765	1500	23092
1764	1492	23097
1665	1646	23102
1572	1642	23106
1513	1617	23111
1498	1536	23116
1525	1565	23120
1584	1549	23126
1748	1494	23131
1817	1472	23135
1754	1479	23140
1625	1505	23144
1557	1560	23149
1615	1516	23154
1657	1478	23158
1606	1578	23163
1548	1581	23169
1572	1699	23173
1703	1580	23178
1800	1558	23182
1797	1644	23187
1679	1530	23192
1572	1557	23196
1525	1552	23201
1592	1528	23206
1619	1496	23211
1565	1464	23216
1467	1441	23221
1403	1522	23225
1373	1567	23230
1374	1476	23234
1397	1519	23239
1439	1561	23244
1472	1486	23248
1499	1435	23254
1542	1408	23259
1569	1415	23263
1628	1458	23268
1678	1633	23272
1683	1653	23277
1726	1538	23282
1737	1478	23286
1693	1662	23291
1583	1541	23297
1488	1484	23301
1433	1441	23306
1418	1397	23310
1456	1401	23315
1504	1404	23320
1529	1407	23324
1511	1408	23329
1487	1392	23334
1484	1439	23339
1489	1600	23344
1494	1507	23348
1501	1497	23353
1507	1560	23358
1486	1481	23362
1467	1450	23367
1483	1532	23372
1531	1490	23376
1579	1538	23382
1700	1694	23387
1763	1546	23391
1709	1462	23396
1616	1410	23400
1496	1401	23405
1419	1401	23410
1380	1419	23414
1379	1442	23419
1409	1426	23425
1443	1441	23429
1471	1474	23434
1486	1572	23438
1492	1495	23443
1491	1647	23448
1492	1503	23452
1496	1461	23457
1537	1505	23462
1569	1462	23467
1587	1448	23472
1586	1489	23476
1558	1457	23481
1518	1501	23486
1466	1511	23490
1433	1477	23495
1440	1454	23500
1454	1495	23504
1451	1522	23510
1461	1474	23515
1475	1473	23519
1486	1445	23524
1504	1496	23528
1521	1662	23533
1548	1576	23538
1565	1504	23542
1574	1492	23547
1573	1512	23553
1602	1456	23557
1628	1474	23562
1635	1477	23566
1622	1501	23571
1572	1458	23576
1508	1434	23580
1430	1438	23585
1389	1447	23590
1389	1425	23595
1416	1454	23600
1424	1444	23605
1423	1445	23609
1419	1447	23614
1422	1449	23618
1413	1486	23623
1401	1507	23628
1417	1700	23632
1434	1548	23638
1440	1491	23643
1452	1472	23647
1471	1465	23652
1472	1449	23656
1442	1447	23661
1401	1453	23666
1373	1463	23670
1361	1458	23675
1366	1479	23681
1391	1584	23685
1399	1504	23690
1396	1491	23694
1396	1524	23699
1387	1555	23704
1391	1494	23708
1392	1483	23713
1397	1480	23718
1401	1474	23723
1404	1493	23728
1402	1479	23732
1392	1541	23737
1381	1496	23742
1386	1494	23746
1409	1473	23751
1409	1497	23756
1400	1468	23760
1386	1454	23766
1382	1472	23771
1381	1506	23775
1379	1548	23780
1378	1533	23784
1384	1476	23789
1385	1456	23794
1383	1468	23798
1383	1465	23803
1376	1478	23809
1365	1486	23813
1360	1477	23818
1361	1498	23822
1378	1481	23827
1386	1484	23832
1394	1497	23836
1392	1479	23841
1386	1511	23846
1405	1487	23851
1419	1464	23856
1417	1491	23861
1416	1484	23865
1432	1457	23870
1446	1469	23874
1448	1459	23879
1453	1452	23884
1456	1454	23888
1446	1484	23894
1451	1458	23899
1468	1451	23903
1483	1447	23908
1487	1458	23912
1483	1451	23917
1487	1451	23922
1493	1484	23926
1497	1464	23931
1493	1483	23937
1476	1506	23941
1457	1482	23946
1451	1468	23950
1461	1457	23955
1477	1448	23960
1494	1444	23964
1511	1448	23969
1529	1462	23974
1553	1446	23979
1574	1447	23984
1592	1450	23989
1606	1448	23993
1613	1455	23998
1610	1475	24002
1606	1474	24007
1608	1458	24012
1603	1491	24016
1598	1455	24022
1595	1453	24027
1590	1451	24031
1587	1456	24036
1586	1459	24040
1586	1457	24045
1582	1460	24050
1567	1465	24054
1563	1459	24059
1573	1456	24065
1581	1455	24069
1583	1460	24074
1579	1468	24078
1574	1474	24083
1573	1470	24088
1575	1466	24092
1573	1465	24097
1571	1467	24102
1569	1469	24107
1567	1476	24112
1562	1478	24116
1560	1485	24121
1560	1473	24126
1562	1472	24130
1563	1472	24135
1567	1478	24140
1572	1491	24144
1573	1486	24150
1570	1496	24155
1566	1501	24159
1570	1488	24164
1572	1481	24168
1575	1477	24173
1585	1474	24178
1591	1474	24182
1595	1485	24187
1595	1479	24193
1600	1480	24197
1605	1477	24202
1610	1473	24206
1613	1473	24211
1616	1476	24216
1620	1479	24220
1626	1481	24225
1629	1486	24230
1630	1507	24235
1633	1496	24240
1639	1490	24244
1641	1487	24249
1641	1486	24254
1645	1486	24258
1645	1492	24263
1649	1486	24268
1659	1485	24272
1667	1493	24278
1674	1491	24283
1681	1491	24287
1687	1491	24292
1695	1489	24296
1701	1504	24301
1707	1516	24306
1712	1499	24310
1718	1493	24315
1726	1491	24321
1734	1490	24325
1742	1488	24330
1749	1485	24334
1755	1490	24339
1758	1502	24344
1760	1500	24348
1762	1512	24353
1768	1497	24358
1775	1494	24363
1778	1505	24368
1782	1503	24372
1781	1501	24377
1779	1498	24382
1774	1528	24386
1764	1494	24391
1762	1496	24396
1761	1491	24400
1768	1508	24406
1783	1497	24411
1797	1518	24415
1810	1511	24420
1820	1524	24424
1829	1539	24429
1840	1538	24434
1852	1497	24438
1856	1491	24443
1857	1472	24449
1853	1460	24453
1843	1499	24458
1836	1532	24462
1835	1514	24467
1831	1485	24472
1826	1501	24476
1821	1482	24481
1816	1502	24486
1811	1515	24491
1807	1546	24496
1803	1565	24501
1800	1537	24505
1794	1503	24510
1786	1523	24514
1775	1501	24519
1778	1462	24524
1780	1453	24528
1773	1446	24534
1774	1463	24539
1775	1479	24543
1774	1524	24548
1773	1517	24552
1771	1561	24557
1770	1562	24562
