1447	1473	4
1448	1481	9
1447	1519	13
1457	1540	18
1469	1537	22
1475	1535	27
1479	1474	31
1471	1464	36
1450	1478	40
1441	1472	45
1458	1458	50
1465	1448	54
1467	1473	59
1464	1483	63
1457	1483	68
1454	1484	72
1441	1501	77
1436	1431	81
1440	1427	87
1446	1395	91
1467	1381	96
1494	1391	100
1517	1445	105
1544	1455	109
1570	1443	114
1588	1447	118
1594	1432	123
1596	1433	128
1596	1456	133
1587	1450	137
1574	1498	142
1558	1470	147
1541	1474	151
1523	1420	156
1509	1413	160
1503	1435	165
1497	1447	169
1492	1470	175
1494	1482	179
1492	1431	184
1484	1414	188
1472	1443	193
1456	1464	197
1457	1463	202
1466	1450	206
1472	1465	211
1473	1489	216
1469	1471	221
1458	1494	226
1445	1480	230
1446	1487	235
1449	1503	239
1445	1512	244
1441	1527	248
1432	1534	253
1434	1554	258
1435	1533	263
1447	1566	267
1459	1566	272
1465	1562	276
1462	1534	281
1456	1526	285
1446	1504	290
1437	1495	294
1435	1507	300
1442	1515	304
1446	1561	309
1450	1567	314
1447	1524	318
1448	1535	323
1446	1531	327
1447	1522	332
1452	1493	336
1450	1534	342
1444	1508	346
1439	1487	351
1435	1484	355
1443	1526	360
1460	1519	364
1472	1544	369
1472	1498	373
1472	1469	378
1475	1473	382
1476	1447	388
1478	1453	393
1485	1482	397
1496	1472	402
1501	1474	406
1503	1485	411
1515	1513	415
1532	1531	420
1540	1539	424
1543	1538	430
1542	1571	434
1538	1586	439
1531	1544	443
1530	1539	448
1539	1567	452
1543	1559	457
1545	1534	461
1540	1543	466
1529	1552	472
1524	1529	476
1531	1509	481
1540	1493	485
1543	1535	490
1537	1529	494
1528	1470	499
1523	1457	503
1531	1440	508
1540	1433	513
1541	1455	518
1538	1515	522
1536	1474	527
1537	1480	531
1534	1472	536
1534	1479	540
1531	1523	545
1524	1494	550
1525	1550	555
1523	1522	560
1516	1491	564
1509	1507	569
1506	1481	573
1508	1438	578
1512	1423	582
1519	1422	587
1526	1433	591
1527	1472	596
1534	1431	601
1537	1427	606
1537	1448	610
1540	1456	615
1548	1458	619
1553	1464	624
1558	1538	629
1561	1517	633
1560	1498	638
1567	1489	643
1580	1488	648
1584	1495	652
1590	1497	657
1590	1497	661
1586	1497	666
1586	1501	670
1585	1519	675
1581	1529	679
1585	1550	685
1586	1535	689
1587	1519	694
1583	1510	698
1589	1508	703
1603	1523	708
1626	1533	712
1656	1522	717
1687	1529	721
1692	1559	727
1689	1545	731
1683	1532	736
1671	1540	740
1639	1535	745
1601	1535	749
1579	1552	754
1574	1556	758
1567	1540	763
1557	1555	768
1548	1555	773
1542	1559	777
1530	1595	782
1524	1560	787
1514	1529	791
1496	1495	796
1472	1476	800
1457	1471	805
1448	1473	809
1441	1499	815
1437	1540	819
1435	1512	824
1428	1501	828
1410	1493	833
1400	1479	837
1400	1490	842
1410	1496	846
1416	1490	851
1417	1472	856
1410	1481	861
1399	1486	866
1384	1481	870
1389	1486	875
1385	1518	879
1382	1517	884
1383	1516	888
1383	1510	893
1380	1505	898
1383	1486	903
1389	1480	907
1392	1474	912
1384	1473	916
1376	1475	921
1377	1491	925
1385	1474	930
1382	1470	934
1367	1473	940
1362	1511	945
1367	1499	949
1382	1496	954
1402	1479	958
1409	1468	963
1414	1474	967
1413	1495	972
1417	1517	976
1420	1501	982
1425	1489	986
1437	1475	991
1450	1474	995
1462	1490	1000
1463	1520	1004
1457	1510	1009
1460	1502	1014
1466	1502	1018
1472	1496	1024
1478	1511	1028
1481	1524	1033
1487	1515	1038
1485	1490	1042
1484	1484	1047
1481	1530	1051
1470	1521	1056
1458	1525	1060
1463	1462	1065
1475	1433	1071
1474	1453	1075
1470	1472	1080
1468	1420	1084
1468	1378	1089
1480	1357	1093
1493	1361	1098
1490	1370	1103
1481	1367	1107
1482	1370	1113
1481	1388	1117
1469	1463	1122
1462	1472	1127
1463	1422	1131
1481	1392	1136
1497	1390	1140
1502	1425	1145
1499	1416	1149
1484	1420	1155
1475	1440	1160
1476	1435	1164
1468	1468	1169
1473	1463	1173
1471	1469	1178
1469	1460	1182
1467	1477	1187
1467	1503	1192
1473	1502	1197
1476	1484	1202
1479	1473	1206
1479	1496	1211
1463	1523	1216
1455	1513	1220
1462	1504	1225
1470	1482	1229
1482	1482	1234
1493	1519	1239
1492	1531	1244
1498	1481	1249
1505	1452	1253
1516	1449	1258
1511	1454	1262
1496	1486	1267
1496	1504	1271
1504	1479	1276
1502	1462	1282
1493	1479	1286
1482	1497	1291
1482	1469	1295
1500	1435	1300
1510	1431	1305
1516	1453	1309
1532	1490	1314
1557	1445	1318
1588	1430	1324
1607	1442	1328
1603	1481	1333
1603	1509	1338
1602	1443	1342
1602	1396	1347
1589	1382	1351
1555	1396	1356
1526	1425	1360
1518	1414	1366
1517	1409	1371
1513	1415	1375
1496	1467	1380
1470	1503	1384
1452	1508	1389
1459	1444	1394
1474	1414	1398
1483	1420	1403
1465	1464	1408
1450	1433	1413
1456	1395	1417
1448	1387	1422
1436	1392	1427
1423	1418	1431
1431	1495	1436
1443	1473	1440
1450	1443	1445
1455	1422	1449
1436	1438	1455
1419	1481	1460
1417	1506	1464
1423	1474	1469
1429	1445	1473
1425	1421	1478
1421	1428	1483
1420	1450	1487
1430	1450	1492
1432	1460	1497
1422	1443	1502
1399	1496	1506
1397	1570	1511
1414	1486	1516
1446	1442	1520
1451	1417	1525
1443	1410	1529
1421	1480	1534
1394	1503	1540
1406	1473	1544
1435	1431	1549
1448	1412	1553
1427	1467	1558
1407	1482	1562
1412	1445	1567
1438	1441	1572
1455	1485	1576
1457	1519	1582
1456	1483	1586
1476	1452	1591
1500	1437	1595
1494	1473	1600
1476	1575	1605
1455	1541	1609
1464	1485	1614
1497	1437	1618
1517	1414	1624
1506	1417	1629
1500	1452	1633
1512	1479	1638
1502	1494	1642
1508	1487	1647
1518	1473	1651
1539	1462	1656
1540	1512	1661
1538	1496	1666
1546	1465	1671
1547	1463	1675
1518	1505	1680
1497	1543	1684
1508	1515	1689
1524	1490	1694
1523	1497	1698
1499	1554	1703
1494	1573	1708
1511	1531	1713
1547	1480	1718
1548	1461	1722
1541	1473	1727
1536	1522	1731
1533	1541	1736
1542	1499	1740
1544	1482	1745
1533	1508	1751
1509	1577	1755
1514	1573	1760
1524	1507	1764
1528	1470	1769
1520	1459	1773
1500	1501	1778
1474	1566	1783
1471	1525	1787
1499	1489	1793
1525	1462	1797
1519	1471	1802
1511	1517	1807
1495	1535	1811
1483	1558	1816
1494	1517	1820
1504	1496	1825
1496	1504	1829
1501	1585	1835
1517	1548	1840
1530	1515	1844
1536	1487	1849
1508	1491	1853
1460	1610	1858
1467	1618	1862
1504	1507	1867
1531	1458	1872
1521	1439	1876
1498	1467	1882
1497	1508	1886
1505	1486	1891
1513	1480	1896
1517	1491	1900
1507	1527	1905
1505	1583	1909
1514	1511	1914
1526	1472	1918
1517	1463	1924
1503	1494	1929
1504	1543	1933
1543	1525	1938
1575	1497	1942
1587	1500	1947
1600	1557	1952
1612	1571	1956
1627	1562	1961
1637	1504	1966
1632	1507	1971
1603	1562	1975
1574	1611	1980
1562	1543	1985
1561	1485	1989
1557	1437	1994
1533	1417	1998
1508	1440	2003
1481	1461	2008
1472	1455	2013
1448	1493	2018
1444	1526	2022
1438	1513	2027
1440	1513	2031
1452	1513	2036
1466	1490	2041
1459	1525	2045
1431	1536	2051
1439	1509	2055
1476	1561	2060
1474	1502	2064
1463	1491	2069
1459	1485	2074
1450	1454	2078
1417	1473	2083
1397	1562	2087
1405	1533	2093
1437	1468	2097
1454	1454	2102
1451	1501	2107
1449	1521	2111
1460	1486	2116
1466	1448	2120
1461	1439	2125
1432	1479	2130
1409	1494	2135
1403	1480	2140
1413	1452	2144
1429	1445	2149
1427	1462	2153
1404	1537	2158
1388	1555	2163
1404	1542	2167
1431	1512	2172
1450	1529	2177
1424	1585	2182
1410	1611	2186
1426	1564	2191
1453	1522	2196
1472	1506	2200
1468	1576	2205
1467	1576	2209
1492	1540	2214
1517	1504	2220
1523	1468	2224
1506	1475	2229
1490	1533	2233
1492	1537	2238
1511	1502	2242
1515	1472	2247
1501	1465	2252
1493	1531	2256
1503	1522	2262
1515	1492	2266
1536	1481	2271
1539	1493	2276
1539	1516	2280
1538	1556	2285
1542	1545	2289
1531	1553	2294
1514	1552	2298
1527	1540	2304
1546	1582	2309
1545	1561	2313
1529	1493	2318
1535	1461	2322
1550	1481	2327
1536	1561	2331
1527	1534	2336
1527	1489	2341
1525	1470	2345
1511	1472	2351
1501	1556	2355
1506	1586	2360
1503	1522	2365
1520	1482	2369
1537	1463	2374
1530	1474	2378
1513	1523	2383
1500	1542	2387
1496	1453	2393
1502	1422	2398
1507	1442	2402
1511	1500	2407
1527	1471	2411
1538	1461	2416
1544	1454	2420
1529	1490	2425
1503	1575	2430
1483	1533	2435
1497	1470	2440
1512	1456	2444
1524	1453	2449
1476	1507	2454
1464	1491	2458
1502	1462	2463
1523	1451	2467
1522	1477	2472
1524	1594	2477
1524	1555	2482
1528	1530	2487
1528	1473	2491
1534	1463	2496
1514	1523	2500
1502	1524	2505
1508	1476	2509
1520	1448	2514
1535	1453	2520
1546	1517	2524
1534	1561	2529
1538	1511	2533
1545	1464	2538
1537	1453	2543
1511	1507	2547
1524	1569	2552
1569	1517	2556
1626	1472	2562
1641	1459	2566
1625	1480	2571
1581	1551	2576
1573	1551	2580
1586	1534	2585
1598	1482	2589
1601	1466	2594
1599	1503	2598
1575	1603	2604
1559	1580	2609
1548	1521	2613
1555	1470	2618
1548	1468	2622
1539	1557	2627
1497	1608	2632
1476	1532	2636
1481	1462	2641
1491	1437	2646
1485	1435	2651
1473	1459	2655
1447	1532	2660
1450	1521	2665
1464	1478	2669
1474	1483	2674
1470	1606	2678
1464	1566	2683
1461	1511	2689
1461	1462	2693
1463	1441	2698
1448	1459	2702
1401	1549	2707
1378	1510	2711
1397	1475	2716
1429	1462	2721
1454	1464	2725
1479	1572	2731
1484	1706	2735
1439	1575	2740
1436	1481	2744
1454	1429	2749
1472	1411	2754
1465	1449	2758
1454	1511	2763
1456	1546	2767
1462	1502	2772
1447	1435	2778
1409	1416	2782
1386	1416	2787
1397	1426	2791
1423	1476	2796
1450	1480	2800
1456	1488	2805
1450	1494	2810
1461	1491	2814
1488	1512	2820
1498	1523	2824
1492	1533	2829
1485	1509	2833
1498	1505	2838
1530	1568	2843
1533	1602	2847
1527	1552	2852
1511	1535	2856
1518	1485	2862
1520	1481	2867
1493	1516	2871
1488	1560	2876
1507	1549	2880
1535	1483	2885
1553	1441	2889
1552	1459	2894
1539	1542	2899
1537	1480	2904
1545	1424	2909
1552	1438	2913
1547	1495	2918
1510	1468	2922
1481	1463	2927
1471	1430	2932
1482	1418	2936
1497	1418	2941
1518	1431	2946
1516	1483	2951
1518	1543	2956
1546	1575	2960
1575	1545	2965
1585	1488	2969
1578	1486	2974
1542	1576	2978
1498	1519	2983
1491	1464	2989
1509	1444	2993
1507	1452	2998
1481	1482	3002
1460	1543	3007
1467	1530	3012
1494	1502	3016
1503	1479	3021
1505	1514	3025
1507	1620	3031
1508	1563	3035
1509	1568	3040
1495	1541	3045
1495	1473	3049
1497	1452	3054
1488	1440	3058
1489	1446	3063
1501	1476	3067
1496	1492	3073
1491	1493	3078
1510	1495	3082
1529	1532	3087
1522	1513	3091
1507	1470	3096
1493	1469	3101
1512	1484	3105
1538	1508	3110
1537	1562	3115
1516	1500	3120
1507	1460	3124
1516	1447	3129
1521	1457	3134
1518	1498	3138
1483	1557	3143
1476	1599	3147
1485	1549	3152
1502	1492	3156
1519	1507	3162
1532	1521	3167
1539	1571	3171
1566	1502	3176
1600	1456	3180
1627	1444	3185
1640	1463	3190
1645	1518	3194
1633	1514	3200
1594	1483	3204
1563	1463	3209
1552	1462	3213
1532	1500	3218
1514	1552	3223
1510	1522	3227
1513	1495	3232
1507	1488	3236
1489	1539	3241
1487	1625	3246
1477	1608	3251
1471	1540	3256
1480	1485	3260
1499	1461	3265
1496	1484	3269
1472	1531	3274
1445	1577	3279
1434	1559	3283
1453	1507	3289
1450	1472	3293
1442	1470	3298
1441	1514	3302
1437	1506	3307
1445	1439	3312
1451	1425	3316
1442	1433	3321
1423	1457	3325
1412	1460	3331
1423	1444	3335
1445	1446	3340
1444	1483	3345
1432	1526	3349
1441	1543	3354
1445	1504	3358
1453	1476	3363
1434	1447	3368
1397	1427	3373
1406	1428	3378
1429	1511	3382
1449	1537	3387
1463	1497	3391
1466	1489	3396
1439	1449	3401
1423	1427	3405
1430	1468	3410
1437	1560	3415
1444	1553	3420
1460	1519	3425
1478	1475	3429
1459	1453	3434
1476	1450	3438
1498	1493	3443
1526	1538	3447
1529	1586	3452
1509	1568	3458
1496	1511	3462
1499	1479	3467
1506	1468	3471
1516	1513	3476
1529	1479	3480
1529	1520	3485
1532	1541	3490
1538	1533	3494
1553	1605	3500
1558	1617	3504
1586	1528	3509
1604	1488	3514
1618	1544	3518
1609	1569	3523
1610	1553	3527
1592	1573	3532
1547	1535	3536
1499	1486	3542
1471	1467	3547
1486	1484	3551
1519	1483	3556
1520	1436	3560
1505	1432	3565
1499	1454	3569
1514	1491	3574
1537	1559	3579
1547	1544	3584
1562	1557	3589
1557	1574	3593
1527	1561	3598
1488	1607	3603
1500	1582	3607
1542	1615	3612
1523	1618	3616
1508	1607	3621
1510	1558	3625
1545	1509	3631
1557	1509	3636
1555	1601	3640
1516	1531	3645
1494	1521	3649
1470	1570	3654
1465	1599	3659
1478	1561	3663
1494	1572	3668
1450	1556	3673
1435	1496	3678
1493	1485	3682
1533	1587	3687
1529	1616	3692
1528	1575	3696
1526	1490	3701
1522	1471	3705
1511	1518	3710
1494	1665	3715
1462	1597	3720
1420	1535	3725
1409	1485	3729
1435	1468	3734
1489	1496	3738
1518	1549	3743
1500	1551	3748
1470	1568	3752
1471	1595	3758
1466	1582	3762
1452	1609	3767
1466	1670	3771
1504	1642	3776
1545	1625	3781
1601	1630	3785
1606	1618	3790
1566	1583	3794
1569	1563	3800
1596	1579	3804
1590	1593	3809
1571	1577	3814
1526	1643	3818
1514	1616	3823
1497	1585	3827
1476	1550	3832
1459	1552	3837
1468	1611	3842
1511	1628	3847
1531	1593	3851
1456	1512	3856
1406	1486	3860
1412	1567	3865
1452	1624	3870
1455	1498	3874
1429	1435	3879
1384	1449	3884
1354	1488	3889
1344	1533	3893
1334	1536	3898
1324	1498	3903
1393	1448	3907
1432	1435	3912
1446	1504	3916
1453	1454	3921
1406	1432	3927
1375	1415	3931
1354	1464	3936
1353	1451	3940
1362	1458	3945
1346	1464	3949
1312	1488	3954
1319	1470	3959
1331	1451	3963
1399	1479	3969
1467	1465	3973
1498	1583	3978
1486	1502	3982
1420	1492	3987
1364	1451	3992
1314	1458	3996
1287	1427	4001
1309	1445	4005
1363	1466	4011
1415	1452	4016
1418	1464	4020
1395	1454	4025
1364	1452	4029
1359	1444	4034
1396	1450	4038
1445	1509	4043
1436	1546	4048
1404	1535	4052
1390	1625	4058
1407	1548	4062
1444	1517	4067
1455	1459	4072
1483	1390	4076
1503	1397	4081
1512	1361	4085
1482	1451	4090
1445	1384	4094
1420	1366	4100
1417	1343	4105
1428	1350	4109
1436	1363	4114
1446	1360	4118
1445	1346	4123
1452	1335	4127
1489	1351	4132
1536	1296	4137
1576	1296	4142
1567	1300	4147
1522	1316	4151
1464	1345	4156
1390	1340	4161
1414	1340	4165
1496	1377	4170
1546	1454	4174
1530	1424	4179
1492	1342	4184
1463	1346	4189
1448	1346	4194
1437	1380	4198
1430	1348	4203
1439	1317	4207
1455	1293	4212
1472	1304	4216
1483	1377	4221
1484	1335	4227
1479	1301	4231
1461	1321	4236
1458	1324	4240
1464	1419	4245
1451	1420	4250
1428	1290	4254
1418	1266	4259
1418	1255	4263
1430	1276	4269
1496	1277	4273
1526	1225	4278
1485	1229	4283
1471	1294	4287
1482	1305	4292
1534	1307	4296
1569	1279	4301
1535	1248	4305
1496	1254	4311
1484	1271	4316
1486	1277	4320
1488	1291	4325
1459	1322	4329
1451	1268	4334
1470	1318	4339
1477	1302	4343
1490	1295	4348
1520	1335	4353
1573	1278	4358
1601	1240	4362
1588	1220	4367
1542	1205	4372
1530	1243	4376
1562	1345	4381
1574	1287	4385
1584	1274	4390
1606	1280	4396
1618	1340	4400
1616	1372	4405
1622	1371	4409
1609	1356	4414
1598	1363	4418
1573	1464	4423
1542	1416	4428
1522	1462	4432
1496	1392	4438
1485	1380	4442
1479	1390	4447
1463	1380	4451
1421	1365	4456
1401	1357	4461
1457	1393	4465
1503	1444	4470
1532	1447	4474
1537	1473	4480
1508	1402	4485
1478	1390	4489
1487	1413	4494
1476	1453	4498
1437	1482	4503
1435	1488	4507
1440	1474	4512
1429	1450	4517
1418	1492	4521
1431	1471	4527
1419	1480	4531
1415	1468	4536
1407	1483	4540
1422	1528	4545
1440	1521	4550
1426	1572	4554
1409	1587	4559
1401	1571	4563
1407	1682	4569
1430	1512	4574
1438	1454	4578
1426	1401	4583
1409	1389	4587
1394	1399	4592
1388	1425	4596
1382	1495	4601
1407	1483	4606
1432	1478	4611
1442	1512	4616
1442	1584	4620
1427	1533	4625
1426	1503	4629
1441	1480	4634
1459	1468	4639
1460	1499	4643
1460	1503	4648
1463	1512	4653
1464	1550	4658
1476	1508	4663
1480	1496	4667
1467	1512	4672
1458	1519	4676
1459	1490	4681
1470	1507	4685
1492	1503	4690
1506	1552	4696
1520	1532	4700
1514	1486	4705
1497	1452	4709
1490	1446	4714
1481	1450	4719
1491	1490	4723
1517	1453	4728
1515	1440	4732
1518	1434	4738
1521	1425	4742
1513	1443	4747
1509	1481	4752
1503	1463	4756
1505	1453	4761
1508	1460	4765
1503	1530	4770
1504	1563	4774
1509	1527	4780
1525	1473	4785
1509	1457	4789
1489	1474	4794
1485	1546	4798
1496	1477	4803
1522	1456	4808
1513	1452	4812
1489	1441	4817
1475	1477	4822
1485	1468	4827
1502	1473	4831
1500	1462	4836
1499	1480	4841
1471	1512	4845
1460	1497	4850
1462	1480	4854
1475	1473	4859
1467	1459	4864
1464	1484	4869
1499	1471	4874
1520	1421	4878
1523	1409	4883
1509	1415	4887
1503	1519	4892
1512	1532	4897
1522	1473	4901
1502	1437	4907
1473	1410	4911
1451	1445	4916
1450	1472	4920
1470	1464	4925
1484	1420	4930
1501	1412	4934
1506	1427	4939
1491	1422	4943
1507	1445	4948
1554	1458	4954
1601	1472	4958
1623	1501	4963
1634	1570	4967
1652	1588	4972
1643	1565	4976
1600	1559	4981
1583	1600	4986
1577	1549	4990
1559	1525	4996
1530	1479	5000
1513	1468	5005
1478	1544	5009
1468	1507	5014
1476	1487	5019
1473	1459	5023
1480	1484	5028
1508	1547	5032
1514	1571	5038
1494	1468	5043
1475	1435	5047
1445	1435	5052
1431	1459	5056
1435	1475	5061
1449	1492	5065
1447	1504	5070
1439	1536	5075
1428	1590	5080
1406	1542	5085
1397	1551	5089
1413	1519	5094
1434	1496	5098
1461	1490	5103
1491	1534	5108
1500	1494	5112
1462	1494	5117
1432	1545	5122
1431	1500	5127
1433	1479	5132
1427	1491	5136
1424	1505	5141
1432	1578	5145
1424	1585	5150
1416	1545	5154
1396	1521	5159
1411	1497	5165
1481	1495	5169
1492	1503	5174
1485	1526	5178
1476	1559	5183
1458	1548	5188
1434	1576	5192
1406	1622	5197
1379	1606	5201
1375	1535	5207
1401	1505	5211
1438	1493	5216
1463	1508	5221
1485	1548	5225
1481	1546	5230
1473	1544	5234
1479	1553	5239
1492	1570	5243
1499	1561	5249
1493	1505	5254
1482	1494	5258
1469	1490	5263
1425	1531	5267
1437	1577	5272
1461	1559	5277
1471	1534	5281
1501	1522	5286
1517	1502	5291
1521	1528	5296
1518	1595	5300
1529	1529	5305
1543	1500	5310
1541	1517	5314
1535	1534	5319
1526	1497	5323
1495	1464	5328
1465	1450	5332
1450	1458	5338
1419	1500	5343
1402	1577	5347
1422	1595	5352
1481	1530	5356
1503	1520	5361
1470	1517	5366
1490	1493	5370
1506	1508	5376
1520	1463	5380
1527	1453	5385
1503	1470	5389
1466	1492	5394
1464	1515	5399
1465	1536	5403
1456	1595	5408
1459	1563	5412
1474	1537	5417
1465	1524	5423
1451	1546	5427
1440	1529	5432
1451	1513	5436
1490	1520	5441
1482	1503	5445
1425	1500	5450
1412	1496	5455
1435	1489	5459
1468	1495	5465
1542	1511	5469
1596	1552	5474
1631	1521	5478
1632	1494	5483
1596	1525	5488
1569	1613	5492
1550	1603	5497
1535	1509	5501
1522	1440	5507
1496	1414	5512
1481	1428	5516
1488	1473	5521
1543	1486	5525
1579	1454	5530
1587	1454	5534
1543	1491	5539
1527	1581	5544
1554	1556	5549
1570	1519	5554
1555	1505	5558
1549	1509	5563
1526	1561	5567
1499	1524	5572
1507	1514	5577
1504	1508	5581
1478	1519	5586
1490	1601	5591
1524	1607	5596
1545	1583	5601
1533	1543	5605
1517	1515	5610
1483	1541	5614
1422	1535	5619
1415	1518	5623
1459	1480	5628
1495	1464	5634
1481	1497	5638
1450	1606	5643
1451	1575	5647
1476	1500	5652
1491	1468	5657
1511	1471	5661
1456	1557	5666
1459	1521	5670
1485	1503	5676
1492	1495	5680
1481	1511	5685
1452	1491	5690
1443	1520	5694
1462	1513	5699
1482	1496	5703
1478	1485	5708
1473	1495	5712
1493	1509	5718
1520	1550	5723
1538	1540	5727
1507	1516	5732
1454	1550	5736
1414	1532	5741
1423	1560	5746
1465	1545	5750
1492	1480	5755
1483	1448	5760
1488	1432	5765
1499	1440	5769
1506	1465	5774
1489	1497	5779
1487	1494	5783
1498	1551	5788
1487	1600	5792
1487	1522	5797
1491	1454	5801
1509	1434	5807
1518	1447	5812
1522	1462	5816
1494	1464	5821
1478	1483	5825
1476	1507	5830
1495	1509	5835
1502	1567	5839
1502	1545	5844
1510	1516	5849
1529	1534	5854
1520	1570	5858
1520	1629	5863
1502	1541	5868
1505	1466	5872
1508	1454	5877
1507	1447	5881
1510	1481	5886
1519	1507	5892
1518	1476	5896
1519	1452	5901
1525	1542	5905
1532	1539	5910
1513	1496	5914
1513	1466	5919
1475	1481	5924
1471	1469	5928
1472	1453	5934
1480	1447	5938
1486	1445	5943
1490	1450	5947
1488	1467	5952
1468	1518	5957
1480	1554	5961
1525	1546	5966
1523	1531	5970
1516	1516	5976
1520	1532	5981
1487	1627	5985
1479	1609	5990
1501	1614	5994
1528	1628	5999
1503	1548	6003
1439	1554	6008
1421	1504	6013
1447	1448	6018
1495	1443	6023
1532	1407	6027
1537	1423	6032
1536	1486	6036
1524	1447	6041
1512	1416	6046
1548	1420	6050
1560	1494	6055
1567	1555	6060
1558	1512	6065
1590	1466	6070
1606	1441	6074
1593	1461	6079
1564	1508	6083
1519	1498	6088
1521	1500	6092
1559	1524	6097
1572	1581	6103
1551	1662	6107
1545	1629	6112
1550	1586	6116
1573	1553	6121
1579	1507	6126
1555	1544	6130
1508	1628	6135
1471	1534	6139
1496	1475	6145
1511	1463	6149
1523	1462	6154
1514	1476	6159
1496	1498	6163
1504	1511	6168
1516	1532	6172
1492	1546	6177
1462	1545	6181
1465	1521	6187
1479	1497	6192
1508	1490	6196
1541	1531	6201
1526	1512	6205
1505	1492	6210
1497	1486	6215
1493	1480	6219
1490	1496	6224
1465	1528	6228
1454	1534	6234
1444	1549	6238
1456	1565	6243
1456	1606	6248
1481	1675	6252
1503	1637	6257
1513	1542	6261
1514	1482	6266
1499	1485	6272
1468	1480	6276
1468	1455	6281
1463	1448	6285
1479	1455	6290
1500	1478	6294
1507	1588	6299
1501	1595	6304
1496	1512	6308
1508	1459	6313
1535	1472	6318
1519	1560	6323
1495	1518	6327
1520	1484	6332
1544	1437	6337
1538	1423	6341
1528	1442	6346
1519	1488	6350
1504	1501	6355
1475	1480	6361
1469	1485	6365
1475	1540	6370
1469	1573	6374
1479	1544	6379
1504	1507	6383
1521	1500	6388
1517	1494	6393
1523	1489	6397
1537	1518	6403
1532	1542	6407
1494	1611	6412
1476	1525	6417
1493	1474	6421
1518	1446	6426
1529	1469	6430
1526	1505	6435
1502	1502	6439
1494	1471	6445
1503	1462	6450
1520	1511	6454
1527	1513	6459
1488	1459	6463
1473	1434	6468
1491	1418	6472
1523	1426	6477
1549	1471	6482
1557	1509	6487
1533	1499	6492
1502	1476	6496
1498	1453	6501
1503	1443	6506
1521	1486	6510
1499	1628	6515
1474	1569	6519
1484	1487	6524
1512	1445	6529
1538	1434	6534
1521	1499	6539
1500	1525	6543
1485	1491	6548
1499	1458	6552
1522	1448	6557
1521	1484	6561
1510	1561	6566
1504	1491	6572
1509	1464	6576
1516	1451	6581
1521	1451	6585
1511	1469	6590
1481	1525	6595
1458	1545	6599
1479	1530	6604
1536	1524	6608
1574	1557	6614
1570	1632	6618
1546	1572	6623
1549	1478	6628
1572	1446	6632
1612	1456	6637
1673	1542	6641
1660	1598	6646
1606	1514	6651
1570	1429	6656
1558	1398	6661
1549	1413	6665
1540	1501	6670
1491	1471	6674
1463	1421	6679
1471	1380	6684
1491	1376	6688
1496	1393	6693
1469	1466	6697
1432	1523	6703
1440	1452	6707
1473	1426	6712
1496	1434	6717
1508	1471	6721
1503	1524	6726
1494	1544	6730
1480	1483	6735
1473	1437	6740
1472	1419	6745
1485	1446	6750
1499	1554	6754
1482	1580	6759
1475	1475	6763
1487	1415	6768
1495	1394	6773
1518	1417	6777
1505	1482	6782
1469	1475	6787
1464	1454	6792
1474	1431	6796
1488	1434	6801
1429	1499	6806
1381	1571	6810
1396	1530	6815
1435	1472	6819
1471	1448	6824
1508	1475	6830
1521	1541	6834
1502	1536	6839
1476	1498	6843
1477	1451	6848
1494	1441	6852
1491	1476	6857
1454	1585	6862
1439	1528	6866
1448	1533	6872
1473	1536	6876
1492	1499	6881
1486	1468	6885
1498	1454	6890
1522	1508	6895
1515	1569	6899
1510	1459	6904
1527	1437	6908
1562	1501	6914
1541	1573	6919
1523	1524	6923
1532	1432	6928
1540	1407	6932
1535	1390	6937
1534	1396	6941
1528	1489	6946
1521	1517	6951
1519	1455	6956
1527	1418	6961
1508	1411	6965
1486	1422	6970
1485	1448	6975
1525	1497	6979
1555	1483	6984
1548	1485	6988
1569	1500	6993
1585	1542	6998
1570	1587	7003
1542	1595	7008
1532	1617	7012
1513	1598	7017
1507	1609	7021
1501	1527	7026
1486	1526	7030
1486	1539	7035
1509	1524	7041
1528	1515	7045
1533	1512	7050
1542	1500	7054
1537	1526	7059
1549	1523	7064
1511	1523	7068
1523	1561	7073
1542	1502	7077
1576	1457	7083
1630	1436	7087
1621	1466	7092
1576	1595	7097
1555	1510	7101
1554	1522	7106
1541	1465	7110
1510	1468	7115
1508	1494	7119
1517	1492	7124
1527	1439	7130
1532	1423	7134
1548	1448	7139
1572	1562	7143
1564	1578	7148
1571	1478	7153
1601	1483	7157
1622	1611	7162
1607	1614	7166
1585	1509	7172
1555	1464	7176
1539	1416	7181
1551	1422	7186
1566	1499	7190
1545	1494	7195
1518	1489	7199
1495	1483	7204
1449	1494	7209
1481	1511	7214
1472	1556	7219
1481	1583	7223
1532	1630	7228
1539	1618	7232
1529	1654	7237
1534	1734	7242
1524	1698	7246
1503	1653	7251
1465	1699	7256
1378	1703	7261
1366	1675	7265
1377	1707	7270
1399	1683	7275
1423	1684	7279
1405	1635	7284
1412	1571	7288
1425	1528	7293
1434	1575	7299
1426	1659	7303
1375	1636	7308
1313	1567	7312
1282	1493	7317
1292	1525	7321
1345	1603	7326
1367	1681	7331
1383	1561	7335
1387	1459	7341
1405	1421	7345
1481	1479	7350
1518	1550	7354
1530	1520	7359
1513	1503	7364
1467	1584	7368
1426	1676	7373
1410	1631	7377
1379	1646	7383
1338	1545	7388
1338	1547	7392
1348	1568	7397
1368	1525	7401
1392	1481	7406
1458	1499	7410
1521	1485	7415
1532	1548	7420
1489	1521	7425
1469	1492	7430
1448	1498	7434
1413	1536	7439
1408	1601	7443
1400	1525	7448
1421	1500	7453
1450	1497	7457
1494	1504	7462
1542	1571	7467
1524	1580	7472
1494	1584	7477
1483	1581	7481
1466	1628	7486
1461	1666	7490
1457	1688	7495
1475	1684	7499
1480	1651	7504
1465	1638	7510
1442	1614	7514
1446	1630	7519
1494	1630	7523
1472	1630	7528
1431	1619	7533
1434	1560	7537
1445	1544	7542
1441	1562	7546
1431	1584	7552
1420	1548	7556
1426	1519	7561
1462	1592	7566
1533	1618	7570
1545	1519	7575
1491	1471	7579
1416	1467	7584
1392	1442	7588
1411	1457	7593
1436	1456	7599
1449	1420	7603
1475	1414	7608
1497	1371	7612
1496	1333	7617
1470	1415	7622
1481	1431	7626
1497	1402	7631
1482	1366	7635
1460	1332	7641
1438	1273	7645
1416	1270	7650
1410	1308	7655
1415	1356	7659
1450	1412	7664
1495	1301	7668
1508	1254	7673
1494	1254	7678
1501	1343	7683
1522	1369	7688
1581	1341	7692
1610	1305	7697
1608	1252	7701
1613	1254	7706
1591	1356	7711
1590	1491	7715
1562	1384	7720
1518	1290	7725
1475	1231	7730
1451	1215	7734
1431	1226	7739
1423	1259	7744
1424	1317	7748
1428	1342	7753
1430	1294	7757
1425	1298	7762
1430	1330	7768
1435	1376	7772
1462	1336	7777
1490	1264	7781
1509	1193	7786
1513	1189	7790
1473	1304	7795
1451	1343	7800
1428	1307	7804
1412	1272	7810
1389	1218	7814
1375	1248	7819
1364	1236	7823
1356	1251	7828
1332	1248	7833
1338	1216	7837
1372	1215	7842
1398	1322	7846
1406	1330	7852
1415	1259	7857
1437	1260	7861
1462	1244	7866
1484	1286	7870
1443	1400	7875
1394	1298	7879
1371	1268	7884
1346	1263	7889
1333	1348	7894
1332	1356	7899
1339	1360	7903
1380	1328	7908
1417	1302	7913
1449	1322	7917
1478	1438	7922
1486	1429	7926
1445	1353	7931
1412	1300	7936
1412	1309	7941
1410	1417	7946
1418	1344	7950
1432	1335	7955
1450	1284	7959
1454	1270	7964
1474	1318	7968
1429	1391	7973
1435	1395	7979
1467	1367	7983
1516	1358	7988
1543	1421	7992
1544	1473	7997
1530	1487	8002
1514	1436	8006
1504	1378	8011
1514	1326	8015
1516	1332	8020
1527	1361	8025
1547	1422	8030
1533	1447	8035
1501	1435	8039
1497	1423	8044
1502	1416	8048
1489	1463	8053
1479	1466	8057
1495	1468	8062
1512	1509	8068
1497	1546	8072
1485	1546	8077
1489	1479	8081
1490	1450	8086
1485	1488	8091
1494	1495	8095
1510	1478	8100
1510	1475	8104
1488	1482	8110
1473	1542	8114
1496	1556	8119
1505	1506	8124
1516	1485	8128
1519	1491	8133
1524	1520	8137
1516	1559	8142
1495	1565	8146
1487	1567	8152
1492	1564	8157
1504	1559	8161
1519	1530	8166
1524	1503	8170
1532	1483	8175
1538	1454	8180
1529	1453	8184
1521	1475	8189
1506	1495	8194
1479	1522	8199
1477	1531	8203
1511	1546	8208
1544	1529	8213
1574	1511	8217
1585	1482	8222
1604	1474	8226
1640	1481	8231
1632	1478	8236
1627	1459	8241
1627	1457	8246
1612	1468	8250
1592	1492	8255
1574	1514	8259
1560	1563	8264
1553	1480	8269
1532	1461	8273
1507	1446	8279
1471	1456	8283
1431	1497	8288
1448	1485	8292
1476	1463	8297
1487	1492	8302
1478	1518	8306
1456	1488	8311
1437	1465	8315
1442	1438	8321
1444	1461	8326
1436	1558	8330
1451	1486	8335
1469	1442	8339
1465	1418	8344
1451	1418	8348
1420	1516	8353
1389	1569	8358
1386	1487	8363
1407	1420	8368
1426	1405	8372
1424	1412	8377
1418	1470	8381
1416	1487	8386
1423	1491	8391
1419	1487	8395
1411	1474	8400
1415	1484	8404
1414	1537	8410
1422	1560	8415
1429	1552	8419
1429	1556	8424
1413	1537	8428
1376	1531	8433
1349	1527	8437
1346	1487	8442
1359	1444	8448
1380	1443	8452
1407	1486	8457
1447	1524	8461
1471	1510	8466
1435	1484	8470
1421	1594	8475
1394	1565	8480
1405	1509	8484
1441	1503	8489
1457	1436	8494
1458	1445	8499
1461	1490	8504
1469	1430	8508
1482	1423	8513
1488	1436	8517
1496	1477	8522
1475	1554	8526
1449	1527	8531
1460	1490	8537
1471	1487	8541
1480	1547	8546
1488	1583	8550
1489	1521	8555
1501	1487	8559
1489	1472	8564
1481	1484	8569
1489	1577	8573
1526	1619	8579
1536	1528	8583
1523	1485	8588
1545	1479	8593
1545	1523	8597
1514	1581	8602
1470	1615	8606
1383	1546	8611
1293	1504	8615
1329	1494	8621
1414	1486	8626
1498	1487	8630
1537	1494	8635
1563	1516	8639
1582	1541	8644
1573	1552	8649
1561	1596	8653
1577	1627	8658
1580	1662	8663
1545	1617	8668
1481	1532	8672
1447	1483	8677
1438	1480	8682
1460	1524	8686
1511	1496	8691
1537	1504	8695
1537	1500	8700
1525	1516	8705
1499	1568	8710
1480	1612	8715
1512	1613	8719
1528	1575	8724
1509	1559	8728
1541	1578	8733
1571	1589	8738
1561	1483	8742
1549	1419	8748
1544	1402	8752
1556	1416	8757
1528	1518	8761
1521	1509	8766
1563	1472	8771
1602	1475	8775
1636	1478	8780
1647	1521	8784
1647	1548	8790
1653	1494	8794
1627	1483	8799
1574	1461	8804
1535	1470	8808
1515	1476	8813
1500	1469	8817
1503	1464	8822
1505	1501	8827
1501	1546	8832
1491	1570	8837
1457	1536	8841
1447	1539	8846
1458	1541	8850
1484	1495	8855
1506	1494	8860
1507	1485	8864
1499	1500	8869
1486	1522	8873
1465	1531	8879
1428	1517	8884
1416	1477	8888
1448	1453	8893
1500	1473	8897
1513	1546	8902
1502	1500	8906
1483	1482	8911
1441	1478	8916
1376	1496	8921
1345	1571	8926
1389	1596	8930
1429	1586	8935
1448	1563	8939
1454	1563	8944
1462	1553	8949
1468	1485	8953
1469	1464	8958
1458	1446	8963
1445	1449	8968
1412	1498	8973
1399	1607	8977
1420	1528	8982
1410	1480	8986
1393	1462	8991
1394	1477	8995
1398	1534	9000
1434	1533	9006
1469	1526	9010
1500	1512	9015
1518	1523	9019
1498	1600	9024
1489	1675	9028
1502	1597	9033
1517	1518	9038
1519	1478	9042
1514	1467	9048
1540	1513	9052
1547	1506	9057
1537	1462	9062
1511	1461	9066
1492	1476	9071
1466	1533	9075
1447	1496	9080
1460	1469	9084
1489	1509	9090
1546	1584	9095
1550	1544	9099
1552	1482	9104
1564	1435	9108
1556	1424	9113
1542	1447	9117
1471	1516	9122
1425	1510	9127
1435	1509	9132
1468	1517	9137
1492	1509	9141
1515	1522	9146
1508	1486	9151
1519	1507	9155
1547	1510	9160
1569	1535	9164
1571	1532	9169
1547	1479	9174
1514	1449	9179
1496	1443	9184
1480	1476	9188
1482	1523	9193
1493	1527	9197
1501	1505	9202
1514	1477	9207
1510	1465	9211
1479	1495	9217
1480	1545	9221
1503	1502	9226
1521	1480	9230
1540	1478	9235
1534	1508	9240
1529	1553	9244
1538	1580	9249
1538	1515	9253
1541	1505	9259
1539	1567	9263
1536	1603	9268
1534	1593	9273
1537	1521	9277
1559	1460	9282
1562	1461	9286
1548	1476	9291
1555	1443	9296
1587	1421	9300
1617	1404	9306
1658	1420	9310
1654	1447	9315
1638	1477	9319
1611	1473	9324
1602	1471	9329
1609	1576	9333
1590	1499	9338
1587	1460	9342
1585	1448	9348
1569	1480	9353
1520	1490	9357
1501	1494	9362
1500	1515	9366
1518	1500	9371
1523	1507	9375
1509	1514	9380
1520	1529	9385
1529	1595	9390
1528	1625	9395
1499	1578	9399
1469	1587	9404
1462	1566	9408
1470	1524	9413
1469	1511	9418
1471	1509	9422
1470	1483	9427
1464	1451	9432
1460	1447	9437
1458	1441	9442
1445	1484	9446
1414	1571	9451
1405	1539	9455
1428	1489	9460
1450	1458	9464
1501	1478	9469
1525	1531	9475
1493	1502	9479
1470	1479	9484
1451	1474	9488
1448	1501	9493
1433	1595	9497
1388	1598	9502
1372	1539	9507
1383	1506	9511
1401	1505	9517
1421	1524	9521
1401	1508	9526
1414	1489	9531
1433	1480	9535
1446	1469	9540
1460	1478	9544
1485	1553	9549
1491	1555	9553
1483	1506	9559
1474	1475	9564
1489	1473	9568
1493	1489	9573
1480	1550	9577
1490	1577	9582
1496	1591	9587
1509	1518	9591
1514	1481	9596
1516	1457	9601
1543	1460	9606
1545	1521	9610
1527	1517	9615
1532	1485	9620
1540	1495	9624
1564	1533	9629
1548	1537	9633
1525	1512	9638
1513	1461	9643
1509	1452	9648
1516	1449	9653
1521	1487	9657
1499	1477	9662
1484	1439	9666
1483	1425	9671
1512	1433	9676
1531	1532	9680
1496	1571	9686
1475	1479	9690
1490	1434	9695
1510	1418	9699
1534	1430	9704
1573	1524	9709
1586	1543	9713
1567	1474	9718
1545	1444	9722
1525	1433	9728
1512	1443	9732
1507	1476	9737
1478	1506	9742
1465	1504	9746
1479	1490	9751
1500	1492	9755
1535	1531	9760
1551	1576	9765
1522	1552	9769
1505	1504	9775
1499	1481	9779
1502	1479	9784
1491	1525	9788
1485	1568	9793
1496	1527	9798
1497	1488	9802
1504	1459	9807
1517	1457	9811
1523	1498	9817
1532	1522	9822
1526	1498	9826
1516	1501	9831
1538	1513	9835
1579	1528	9840
1592	1541	9844
1590	1523	9849
1605	1513	9854
1636	1540	9859
1631	1600	9864
1592	1594	9868
1568	1526	9873
1572	1484	9877
1583	1461	9882
1598	1472	9887
1591	1517	9891
1562	1498	9896
1552	1480	9901
1566	1469	9906
1586	1514	9911
1573	1579	9915
1532	1545	9920
1499	1458	9924
1470	1424	9929
1461	1414	9933
1476	1417	9938
1493	1463	9944
1507	1500	9948
1466	1475	9953
1465	1448	9957
1472	1446	9962
1475	1448	9966
1488	1484	9971
1482	1586	9976
1463	1518	9980
1436	1470	9986
1411	1438	9990
1415	1427	9995
1410	1450	10000
1400	1502	10004
1415	1474	10009
1440	1454	10013
1448	1479	10018
1447	1484	10023
1449	1504	10028
1462	1535	10033
1445	1497	10038
1411	1455	10042
1403	1431	10047
1416	1472	10051
1412	1495	10056
1377	1441	10061
1359	1412	10065
1417	1411	10071
1475	1431	10076
1508	1478	10080
1515	1491	10085
1491	1481	10090
1444	1440	10094
1436	1449	10099
1464	1489	10103
1471	1460	10108
1468	1443	10114
1451	1442	10118
1431	1465	10123
1405	1516	10128
1434	1554	10132
1465	1509	10137
1497	1461	10141
1521	1446	10146
1524	1452	10151
1541	1446	10156
1547	1440	10161
1557	1495	10166
1543	1571	10170
1508	1608	10175
1467	1551	10180
1455	1470	10184
1450	1400	10189
1447	1374	10193
1448	1415	10199
1449	1477	10204
1507	1537	10208
1540	1547	10213
1550	1460	10218
1565	1410	10222
1595	1487	10227
1598	1669	10231
1578	1558	10236
1536	1445	10242
1521	1385	10246
1502	1363	10251
1474	1404	10256
1457	1436	10260
1452	1438	10265
1450	1444	10269
1466	1467	10274
1501	1600	10279
1502	1717	10284
1505	1589	10289
1489	1523	10294
1512	1498	10298
1582	1505	10303
1634	1541	10307
1657	1618	10312
1624	1648	10317
1566	1615	10321
1536	1579	10327
1486	1571	10332
1443	1628	10336
1454	1615	10341
1481	1569	10346
1485	1536	10350
1473	1591	10355
1481	1715	10359
1468	1726	10364
1434	1613	10370
1415	1621	10374
1440	1571	10379
1509	1604	10384
1541	1629	10388
1544	1624	10393
1497	1547	10397
1486	1472	10402
1544	1515	10407
1600	1588	10412
1626	1489	10417
1628	1396	10422
1612	1374	10426
1594	1390	10431
1610	1429	10435
1596	1454	10440
1596	1481	10445
1663	1519	10449
1698	1587	10455
1673	1635	10460
1594	1617	10464
1531	1614	10469
1510	1638	10474
1516	1738	10478
1488	1754	10483
1472	1681	10487
1462	1635	10492
1476	1633	10498
1485	1693	10502
1482	1682	10507
1502	1600	10512
1470	1576	10516
1443	1539	10521
1433	1570	10525
1446	1676	10530
1429	1619	10535
1358	1553	10540
1345	1534	10545
1390	1514	10550
1431	1531	10554
1423	1590	10559
1401	1554	10563
1378	1579	10568
1391	1607	10573
1416	1636	10577
1430	1626	10583
1445	1617	10588
1462	1594	10592
1459	1603	10597
1371	1541	10602
1289	1533	10606
1332	1629	10611
1355	1610	10615
1348	1547	10620
1344	1478	10626
1444	1459	10630
1499	1590	10635
1492	1606	10640
1440	1456	10644
1386	1434	10649
1380	1448	10653
1406	1525	10658
1388	1507	10663
1341	1508	10668
1300	1474	10673
1312	1381	10678
1427	1364	10682
1539	1428	10687
1547	1566	10691
1509	1526	10696
1459	1458	10701
1419	1444	10705
1399	1510	10711
1395	1477	10716
1429	1491	10720
1457	1495	10725
1500	1448	10730
1510	1443	10734
1445	1458	10739
1414	1426	10743
1452	1439	10748
1473	1581	10754
1478	1656	10758
1452	1577	10763
1450	1465	10768
1472	1448	10772
1477	1488	10777
1463	1568	10781
1446	1510	10786
1429	1427	10791
1423	1375	10796
1447	1367	10801
1486	1454	10806
1529	1577	10810
1503	1524	10815
1511	1448	10819
1537	1422	10824
1541	1397	10829
1491	1450	10833
1452	1450	10839
1448	1432	10844
1439	1427	10848
1422	1336	10853
1398	1311	10858
1390	1323	10862
1421	1387	10867
1484	1286	10871
1519	1299	10876
1546	1274	10882
1565	1316	10886
1559	1315	10891
1527	1334	10896
1492	1315	10900
1459	1306	10905
1453	1399	10909
1456	1486	10914
1427	1385	10919
1413	1314	10924
1407	1290	10929
1482	1308	10934
1525	1422	10938
1505	1385	10943
1480	1339	10947
1462	1303	10952
1472	1275	10957
1479	1320	10961
1488	1322	10967
1496	1316	10972
1513	1313	10976
1506	1260	10981
1497	1245	10986
1477	1326	10990
1472	1296	10995
1496	1306	10999
1544	1282	11004
1605	1246	11010
1629	1282	11014
1687	1290	11019
1749	1351	11024
1709	1295	11028
1656	1263	11033
1600	1261	11037
1552	1226	11042
1502	1269	11047
1473	1332	11052
1506	1384	11057
1527	1241	11062
1505	1269	11066
1476	1254	11071
1476	1240	11075
1504	1282	11080
1534	1306	11085
1557	1303	11089
1510	1286	11095
1475	1317	11100
1477	1454	11104
1498	1431	11109
1499	1324	11114
1467	1255	11118
1436	1230	11123
1438	1249	11127
1451	1331	11132
1424	1358	11138
1405	1363	11142
1398	1375	11147
1396	1401	11152
1406	1454	11156
1412	1624	11161
1426	1523	11165
1453	1448	11170
1444	1399	11175
1442	1404	11180
1449	1439	11185
1446	1505	11190
1448	1473	11194
1426	1451	11199
1414	1442	11203
1407	1448	11208
1388	1446	11213
1378	1455	11217
1393	1492	11223
1389	1544	11228
1412	1483	11232
1456	1389	11237
1477	1381	11242
1463	1414	11246
1434	1402	11251
1388	1429	11255
1407	1398	11260
1447	1395	11266
1456	1443	11270
1452	1456	11275
1431	1439	11280
1460	1443	11284
1514	1449	11289
1545	1480	11293
1525	1506	11298
1483	1546	11303
1459	1597	11308
1437	1550	11313
1441	1517	11318
1431	1509	11322
1419	1478	11327
1448	1477	11331
1486	1458	11336
1497	1485	11341
1486	1539	11345
1491	1650	11351
1503	1546	11356
1510	1450	11360
1511	1410	11365
1504	1406	11370
1481	1426	11374
1491	1473	11379
1499	1568	11383
1500	1521	11388
1474	1478	11394
1468	1463	11398
1461	1498	11403
1481	1536	11408
1497	1532	11412
1497	1503	11417
1480	1463	11421
1470	1458	11426
1456	1438	11431
1436	1433	11436
1426	1445	11441
1440	1465	11446
1467	1550	11450
1488	1474	11455
1493	1462	11459
1483	1454	11464
1472	1492	11469
1452	1482	11473
1459	1521	11479
1465	1498	11484
1446	1516	11488
1420	1580	11493
1409	1507	11498
1437	1466	11502
1482	1459	11507
1516	1423	11511
1538	1447	11516
1538	1450	11522
1496	1449	11526
1472	1478	11531
1454	1488	11536
1454	1548	11540
1461	1537	11545
1476	1568	11549
1485	1487	11554
1469	1425	11559
1466	1455	11564
1487	1423	11569
1549	1427	11574
1600	1504	11578
1613	1445	11583
1595	1421	11587
1567	1401	11592
1550	1448	11597
1546	1466	11601
1557	1480	11607
1566	1577	11612
1538	1464	11616
1524	1423	11621
1513	1419	11626
1506	1448	11630
1483	1439	11635
1437	1519	11639
1399	1497	11644
1436	1528	11650
1480	1495	11654
1501	1420	11659
1487	1408	11664
1446	1434	11668
1422	1448	11673
1433	1424	11677
1458	1504	11682
1459	1468	11687
1438	1464	11692
1417	1438	11697
1401	1473	11702
1382	1477	11706
1406	1417	11711
1438	1450	11715
1450	1401	11720
1429	1384	11725
1410	1378	11729
1387	1427	11735
1354	1495	11740
1366	1459	11744
1412	1439	11749
1454	1433	11754
1472	1437	11758
1464	1468	11763
1436	1472	11767
1384	1503	11772
1369	1477	11778
1374	1426	11782
1381	1415	11787
1403	1412	11792
1434	1434	11796
1450	1472	11801
1448	1520	11805
1431	1519	11810
1388	1508	11815
1355	1518	11820
1369	1521	11825
1421	1557	11830
1452	1557	11834
1456	1618	11839
1457	1505	11844
1449	1490	11848
1440	1445	11853
1454	1418	11857
1471	1435	11863
1452	1457	11868
1426	1437	11872
1447	1437	11877
1480	1435	11882
1500	1502	11886
1504	1501	11891
1481	1446	11895
1459	1410	11900
1412	1404	11906
1419	1394	11910
1466	1401	11915
1500	1469	11920
1504	1504	11924
1480	1467	11929
1475	1378	11933
1480	1344	11938
1501	1339	11943
1513	1364	11948
1500	1391	11953
1483	1428	11958
1486	1510	11962
1491	1469	11967
1482	1444	11971
1459	1383	11976
1446	1366	11981
1443	1397	11985
1410	1445	11991
1403	1471	11996
1430	1409	12000
1457	1353	12005
1469	1333	12010
1472	1350	12014
1473	1380	12019
1479	1410	12023
1479	1400	12028
1471	1394	12034
1472	1403	12038
1475	1437	12043
1478	1450	12048
1474	1449	12052
1470	1472	12057
1470	1497	12061
1474	1523	12066
1475	1534	12071
1458	1532	12076
1448	1462	12081
1473	1415	12086
1492	1409	12090
1492	1397	12095
1487	1404	12100
1484	1392	12104
1483	1397	12109
1482	1439	12113
1489	1431	12119
1505	1431	12124
1529	1432	12128
1555	1451	12133
1565	1463	12138
1564	1475	12142
1559	1475	12147
1553	1483	12151
1544	1500	12156
1532	1529	12162
1518	1521	12166
1507	1513	12171
1496	1512	12176
1487	1570	12180
1486	1564	12185
1483	1513	12189
1471	1458	12194
1458	1432	12199
1444	1426	12204
1433	1435	12209
1424	1451	12214
1417	1439	12218
1409	1443	12223
1402	1447	12227
1400	1470	12232
1403	1465	12237
1410	1474	12241
1413	1549	12247
1411	1483	12252
1413	1459	12256
1414	1403	12261
1413	1383	12266
1408	1389	12270
1413	1420	12275
1429	1385	12279
1441	1369	12284
1437	1360	12290
1428	1368	12294
1417	1377	12299
1407	1380	12304
1402	1413	12308
1398	1411	12313
1397	1443	12317
1398	1439	12322
1399	1454	12327
1404	1439	12332
1410	1404	12337
1410	1408	12342
1408	1387	12346
1406	1401	12351
1413	1428	12356
1422	1455	12360
1434	1471	12365
1435	1404	12369
1433	1401	12375
1429	1408	12380
1429	1412	12384
1433	1436	12389
1433	1425	12394
1433	1392	12398
1438	1388	12403
1446	1411	12407
1454	1405	12412
1460	1356	12418
1471	1355	12422
1485	1359	12427
1501	1390	12432
1501	1418	12436
1496	1429	12441
1489	1417	12445
1479	1418	12450
1473	1409	12455
1469	1445	12460
1466	1406	12465
1467	1404	12470
1469	1421	12474
1475	1409	12479
1480	1410	12483
1483	1425	12488
1486	1397	12493
1486	1410	12497
1487	1396	12503
1493	1389	12508
1501	1393	12512
1508	1402	12517
1518	1411	12522
1531	1385	12526
1539	1397	12531
1531	1442	12535
1512	1429	12540
1500	1444	12546
1492	1457	12550
1487	1424	12555
1483	1420	12560
1483	1415	12564
1488	1395	12569
1500	1391	12573
1511	1393	12578
1523	1415	12583
1531	1450	12588
1535	1479	12593
1537	1539	12598
1532	1492	12602
1522	1487	12607
1519	1445	12611
1522	1407	12616
1524	1400	12621
1527	1390	12625
1531	1427	12631
1534	1493	12636
1540	1490	12640
1549	1415	12645
1552	1400	12650
1553	1387	12654
1552	1383	12659
1551	1393	12663
1548	1431	12668
1552	1440	12674
1571	1461	12678
1587	1480	12683
1595	1485	12688
1594	1503	12692
1590	1504	12697
1590	1506	12701
1589	1586	12706
1580	1554	12711
1569	1487	12716
1559	1436	12721
1550	1432	12726
1552	1444	12730
1559	1421	12735
1554	1444	12740
1544	1493	12744
1537	1464	12749
1539	1485	12753
1531	1514	12759
1520	1486	12764
1506	1441	12768
1497	1423	12773
1489	1415	12778
1487	1437	12782
1495	1464	12787
1507	1489	12791
1513	1500	12796
1507	1514	12802
1499	1518	12806
1494	1553	12811
1496	1560	12816
1495	1599	12820
1487	1559	12825
1481	1538	12829
1480	1510	12834
1484	1451	12839
1488	1447	12844
1486	1435	12849
1483	1431	12854
1488	1458	12858
1496	1468	12863
1496	1482	12868
1489	1504	12872
1487	1500	12877
1490	1504	12881
1497	1513	12887
1501	1515	12892
1503	1524	12896
1506	1553	12901
1506	1540	12906
1501	1542	12910
1496	1547	12915
1488	1531	12919
1484	1537	12924
1491	1551	12930
1503	1594	12934
1506	1596	12939
1506	1558	12944
1516	1515	12948
1519	1496	12953
1518	1475	12957
1521	1510	12962
1520	1524	12967
1513	1483	12972
1507	1457	12977
1507	1478	12982
1509	1510	12986
1515	1485	12991
1524	1479	12996
1531	1480	13000
1528	1481	13005
1521	1507	13009
1520	1530	13015
1523	1538	13020
1527	1526	13024
1525	1532	13029
1521	1547	13034
1523	1562	13038
1528	1544	13043
1526	1541	13047
1521	1518	13052
1518	1537	13058
1515	1513	13062
1516	1543	13067
1518	1537	13072
1514	1563	13076
1508	1528	13081
1504	1506	13085
1497	1465	13090
1494	1447	13095
1503	1454	13100
1512	1466	13105
1513	1491	13110
1510	1515	13114
1513	1526	13119
1516	1534	13124
1520	1572	13128
1523	1581	13133
1529	1525	13137
1538	1497	13143
1542	1496	13148
1545	1495	13152
1544	1528	13157
1543	1546	13162
1544	1571	13166
1543	1570	13171
1532	1542	13175
1518	1506	13180
1508	1491	13186
1505	1499	13190
1511	1545	13195
1521	1558	13200
1544	1529	13204
1554	1540	13209
1563	1532	13213
1576	1503	13218
1591	1505	13223
1596	1512	13228
1593	1515	13233
1586	1544	13238
1584	1550	13242
1584	1593	13247
1580	1554	13252
1569	1550	13256
1558	1507	13261
1547	1472	13265
1537	1460	13271
1528	1463	13276
1523	1492	13280
1519	1520	13285
1512	1568	13290
1505	1573	13294
1503	1536	13299
1505	1488	13303
1506	1457	13308
1505	1448	13314
1507	1457	13318
1518	1467	13323
1527	1486	13328
1524	1512	13332
1513	1567	13337
1505	1593	13341
1501	1586	13346
