1514	1471	4
1509	1471	9
1516	1479	13
1522	1490	18
1517	1495	22
1511	1504	27
1498	1467	31
1489	1450	36
1494	1482	40
1506	1459	45
1518	1445	50
1512	1448	54
1503	1457	59
1492	1460	63
1498	1505	68
1496	1510	72
1492	1507	77
1492	1489	81
1489	1474	87
1475	1452	91
1478	1446	96
1486	1446	100
1503	1467	105
1513	1502	109
1510	1498	114
1512	1490	118
1520	1501	123
1530	1498	128
1520	1499	133
1489	1501	137
1490	1511	142
1498	1518	147
1506	1532	151
1513	1571	156
1522	1528	160
1525	1520	165
1506	1522	169
1511	1504	175
1520	1515	179
1524	1548	184
1516	1528	188
1498	1538	193
1493	1513	197
1524	1518	202
1556	1539	206
1572	1510	211
1592	1506	216
1600	1510	221
1598	1508	225
1604	1523	230
1601	1530	235
1583	1518	239
1568	1484	244
1567	1472	248
1544	1472	253
1506	1482	258
1505	1521	263
1512	1534	267
1512	1522	272
1501	1541	276
1490	1513	281
1475	1516	285
1454	1557	290
1455	1515	294
1454	1485	300
1443	1474	304
1443	1466	309
1468	1497	314
1468	1507	318
1454	1533	323
1444	1506	327
1430	1499	332
1428	1494	336
1427	1481	342
1442	1470	346
1453	1482	351
1455	1496	355
1454	1497	360
1450	1487	364
1432	1505	369
1416	1500	373
1427	1552	378
1442	1524	382
1424	1500	388
1410	1491	393
1417	1475	397
1429	1472	402
1427	1470	406
1438	1490	411
1433	1513	415
1428	1506	420
1421	1472	424
1421	1506	430
1430	1502	434
1444	1462	439
1447	1462	443
1442	1452	448
1448	1449	452
1459	1463	457
1448	1463	461
1453	1482	466
1462	1491	472
1470	1482	476
1472	1466	481
1490	1464	485
1486	1479	490
1476	1507	494
1484	1549	499
1490	1531	503
1495	1476	508
1487	1455	513
1480	1450	518
1503	1467	522
1521	1495	527
1526	1493	531
1517	1503	536
1520	1504	540
1517	1500	545
1513	1532	550
1513	1497	555
1512	1486	560
1508	1480	564
1512	1468	569
1510	1458	573
1500	1495	578
1497	1472	582
1504	1462	587
1514	1459	591
1509	1495	596
1503	1515	601
1489	1523	606
1487	1475	610
1501	1449	615
1511	1499	619
1502	1485	624
1491	1452	629
1497	1470	633
1510	1444	638
1516	1443	643
1494	1455	648
1495	1443	652
1499	1431	657
1504	1416	661
1508	1448	666
1497	1443	670
1505	1444	675
1504	1464	679
1502	1477	685
1513	1475	689
1523	1484	694
1512	1502	698
1508	1521	703
1511	1503	708
1520	1467	712
1502	1438	717
1490	1427	721
1508	1451	727
1520	1458	731
1528	1463	736
1527	1467	740
1509	1473	745
1491	1463	749
1486	1484	754
1506	1492	758
1525	1505	763
1559	1477	768
1583	1470	773
1614	1443	777
1617	1440	782
1611	1475	787
1611	1438	791
1586	1431	796
1559	1438	800
1571	1442	805
1574	1454	809
1563	1461	815
1553	1468	819
1541	1472	824
1528	1490	828
1516	1484	833
1499	1542	837
1482	1503	842
1475	1507	846
1468	1456	851
1460	1449	856
1452	1455	861
1461	1455	866
1463	1471	870
1464	1492	875
1452	1460	879
1445	1477	884
1427	1477	888
1420	1441	893
1427	1424	898
1428	1430	903
1441	1445	907
1457	1476	912
1457	1485	916
1458	1468	921
1453	1464	925
1441	1500	930
1429	1463	934
1425	1450	940
1427	1461	944
1436	1499	949
1433	1491	954
1425	1450	958
1414	1426	963
1415	1432	967
1433	1436	972
1444	1469	976
1430	1527	982
1426	1516	986
1436	1495	991
1451	1484	995
1450	1492	1000
1448	1485	1004
1439	1472	1009
1425	1439	1014
1438	1436	1018
1449	1438	1024
1464	1466	1028
1468	1494	1033
1474	1486	1037
1478	1466	1042
1469	1436	1047
1458	1451	1051
1467	1444	1056
1493	1450	1060
1493	1475	1065
1473	1534	1071
1482	1490	1075
1497	1478	1080
1503	1477	1084
1508	1476	1089
1506	1523	1093
1504	1551	1098
1511	1526	1103
1512	1484	1107
1495	1460	1113
1514	1446	1117
1530	1456	1122
1511	1485	1126
1508	1494	1131
1510	1498	1136
1517	1505	1140
1512	1518	1145
1532	1574	1149
1538	1548	1155
1530	1550	1160
1514	1513	1164
1496	1527	1169
1483	1507	1173
1457	1510	1178
1446	1443	1182
1472	1416	1187
1497	1418	1192
1505	1414	1197
1503	1421	1202
1506	1465	1206
1505	1476	1211
1504	1457	1215
1494	1433	1220
1485	1425	1225
1490	1430	1229
1498	1467	1234
1510	1480	1239
1515	1499	1244
1521	1468	1249
1521	1469	1253
1513	1486	1258
1496	1517	1262
1500	1553	1267
1518	1551	1271
1514	1525	1276
1502	1496	1282
1511	1523	1286
1522	1543	1291
1522	1507	1295
1510	1506	1300
1509	1506	1305
1508	1479	1309
1504	1499	1314
1515	1520	1318
1535	1511	1324
1566	1482	1328
1575	1466	1333
1582	1487	1338
1593	1486	1342
1597	1464	1347
1595	1469	1351
1591	1453	1356
1565	1441	1360
1545	1450	1366
1544	1486	1371
1545	1518	1375
1532	1519	1380
1509	1499	1384
1496	1507	1389
1476	1519	1394
1454	1527	1398
1468	1517	1403
1475	1490	1408
1482	1529	1413
1483	1544	1417
1478	1513	1422
1465	1499	1427
1451	1475	1431
1445	1480	1436
1449	1531	1440
1432	1509	1445
1444	1479	1449
1460	1466	1455
1457	1451	1460
1452	1469	1464
1436	1479	1469
1428	1505	1473
1441	1500	1478
1422	1519	1483
1419	1569	1487
1448	1558	1492
1444	1495	1497
1428	1474	1502
1431	1466	1506
1430	1484	1511
1423	1488	1516
1427	1500	1520
1437	1476	1525
1429	1449	1529
1433	1453	1534
1422	1473	1539
1435	1503	1544
1457	1519	1549
1456	1501	1553
1443	1498	1558
1426	1467	1562
1431	1463	1567
1441	1489	1572
1428	1503	1576
1429	1504	1582
1451	1493	1586
1471	1491	1591
1479	1505	1595
1489	1529	1600
1495	1596	1605
1481	1532	1609
1476	1504	1614
1493	1482	1618
1487	1511	1624
1483	1502	1628
1502	1492	1633
1512	1489	1638
1523	1522	1642
1533	1508	1647
1522	1537	1651
1510	1487	1656
1510	1494	1661
1512	1475	1666
1511	1481	1671
1515	1478	1675
1514	1457	1680
1523	1476	1684
1529	1478	1689
1529	1516	1694
1528	1541	1698
1520	1542	1703
1513	1531	1708
1491	1478	1713
1478	1451	1717
1480	1439	1722
1487	1421	1727
1495	1427	1731
1486	1457	1736
1486	1515	1740
1492	1489	1745
1502	1467	1751
1520	1444	1755
1513	1487	1760
1496	1517	1764
1504	1505	1769
1513	1482	1773
1517	1475	1778
1513	1438	1783
1490	1437	1787
1500	1438	1793
1509	1445	1797
1506	1451	1802
1484	1441	1806
1495	1442	1811
1512	1455	1816
1522	1468	1820
1530	1516	1825
1540	1566	1829
1534	1548	1835
1526	1494	1840
1514	1514	1844
1498	1462	1849
1472	1436	1853
1467	1429	1858
1484	1445	1862
1507	1474	1867
1542	1477	1872
1570	1471	1876
1594	1479	1882
1607	1506	1886
1617	1473	1891
1609	1485	1896
1597	1509	1900
1593	1498	1905
1584	1464	1909
1566	1461	1914
1544	1473	1918
1533	1493	1924
1544	1480	1929
1545	1507	1933
1534	1515	1938
1510	1520	1942
1500	1496	1947
1487	1470	1951
1461	1476	1956
1459	1503	1961
1476	1480	1966
1483	1449	1971
1460	1442	1975
1457	1445	1980
1462	1475	1985
1469	1490	1989
1469	1491	1994
1458	1468	1998
1445	1456	2003
1442	1447	2008
1444	1462	2013
1432	1475	2018
1403	1488	2022
1397	1484	2027
1417	1487	2031
1436	1490	2036
1446	1552	2040
1434	1546	2045
1402	1532	2051
1415	1495	2055
1449	1479	2060
1464	1466	2064
1448	1487	2069
1437	1497	2074
1445	1500	2078
1433	1495	2083
1404	1497	2087
1414	1492	2093
1442	1528	2097
1443	1533	2102
1426	1528	2107
1413	1497	2111
1419	1489	2116
1441	1512	2120
1448	1532	2125
1445	1485	2129
1462	1451	2135
1467	1424	2140
1465	1410	2144
1460	1443	2149
1441	1460	2153
1458	1462	2158
1489	1475	2163
1504	1472	2167
1490	1439	2172
1491	1439	2177
1486	1468	2182
1502	1486	2186
1505	1518	2191
1509	1496	2196
1505	1501	2200
1513	1502	2205
1521	1502	2209
1513	1486	2214
1518	1471	2220
1518	1454	2224
1505	1460	2229
1516	1457	2233
1529	1474	2238
1527	1509	2242
1520	1477	2247
1518	1460	2252
1513	1455	2256
1511	1446	2262
1508	1475	2266
1504	1475	2271
1486	1529	2275
1481	1460	2280
1496	1420	2285
1499	1418	2289
1472	1419	2294
1434	1465	2298
1446	1480	2304
1483	1476	2309
1510	1503	2313
1513	1523	2318
1510	1543	2322
1491	1500	2327
1498	1450	2331
1511	1437	2336
1514	1446	2341
1517	1458	2345
1527	1491	2351
1529	1496	2355
1523	1523	2360
1504	1551	2364
1505	1527	2369
1514	1503	2374
1507	1502	2378
1494	1482	2383
1508	1479	2387
1531	1485	2393
1517	1480	2398
1502	1514	2402
1495	1518	2407
1499	1533	2411
1501	1477	2416
1499	1467	2420
1502	1482	2425
1508	1475	2430
1531	1468	2435
1565	1476	2440
1593	1466	2444
1612	1476	2449
1612	1468	2453
1612	1455	2458
1603	1469	2463
1594	1468	2467
1577	1496	2472
1555	1520	2477
1537	1532	2482
1522	1506	2487
1513	1487	2491
1507	1492	2496
1495	1501	2500
1487	1489	2505
1487	1465	2509
1478	1466	2514
1466	1470	2520
1475	1491	2524
1465	1542	2529
1452	1495	2533
1451	1503	2538
1447	1520	2543
1432	1536	2547
1445	1507	2552
1461	1495	2556
1458	1486	2562
1460	1486	2566
1458	1471	2571
1444	1482	2576
1430	1492	2580
1418	1528	2585
1426	1533	2589
1424	1518	2594
1418	1503	2598
1433	1512	2604
1437	1508	2609
1432	1501	2613
1448	1520	2618
1428	1507	2622
1425	1510	2627
1449	1489	2632
1446	1489	2636
1435	1497	2641
1424	1491	2646
1422	1502	2651
1420	1504	2655
1439	1520	2660
1450	1502	2665
1454	1511	2669
1440	1508	2674
1428	1508	2678
1437	1521	2683
1428	1535	2688
1435	1538	2693
1463	1517	2698
1475	1517	2702
1461	1535	2707
1460	1520	2711
1484	1503	2716
1492	1478	2721
1486	1486	2725
1479	1544	2731
1494	1486	2735
1499	1455	2740
1506	1445	2744
1497	1448	2749
1505	1475	2754
1519	1477	2758
1520	1487	2763
1522	1498	2767
1519	1523	2772
1521	1586	2777
1524	1558	2782
1514	1530	2787
1504	1491	2791
1484	1489	2796
1471	1518	2800
1491	1522	2805
1509	1506	2810
1520	1488	2814
1527	1488	2820
1519	1494	2824
1514	1487	2829
1515	1495	2833
1501	1511	2838
1508	1530	2843
1509	1545	2847
1498	1541	2852
1490	1540	2856
1492	1526	2862
1489	1527	2867
1497	1557	2871
1512	1573	2876
1507	1547	2880
1484	1543	2885
1486	1564	2889
1507	1565	2894
1512	1518	2899
1517	1476	2904
1510	1463	2909
1494	1433	2913
1509	1429	2918
1524	1461	2922
1534	1492	2927
1525	1483	2932
1521	1461	2936
1513	1459	2941
1515	1464	2946
1523	1472	2951
1507	1474	2956
1480	1454	2960
1485	1442	2965
1506	1447	2969
1517	1448	2974
1527	1447	2978
1523	1459	2983
1553	1483	2989
1615	1532	2993
1648	1541	2998
1646	1504	3002
1640	1491	3007
1631	1459	3011
1608	1457	3016
1599	1476	3021
1586	1493	3025
1551	1489	3031
1507	1495	3035
1506	1470	3040
1520	1456	3045
1527	1501	3049
1516	1508	3054
1508	1485	3058
1489	1475	3063
1449	1483	3067
1426	1456	3073
1446	1454	3078
1471	1469	3082
1491	1514	3087
1489	1503	3091
1478	1508	3096
1456	1495	3100
1449	1499	3105
1452	1490	3110
1446	1521	3115
1454	1491	3120
1450	1482	3124
1436	1469	3129
1433	1490	3134
1459	1487	3138
1464	1493	3143
1452	1485	3147
1436	1482	3152
1435	1484	3156
1435	1492	3162
1443	1482	3167
1444	1476	3171
1419	1480	3176
1393	1509	3180
1384	1477	3185
1391	1454	3189
1425	1469	3194
1454	1471	3200
1455	1488	3204
1440	1474	3209
1439	1482	3213
1441	1466	3218
1436	1472	3223
1421	1468	3227
1422	1457	3232
1450	1499	3236
1467	1478	3241
1464	1480	3246
1456	1472	3251
1464	1486	3256
1486	1497	3260
1497	1507	3265
1500	1513	3269
1492	1525	3274
1500	1528	3278
1506	1491	3283
1488	1469	3289
1480	1466	3293
1489	1474	3298
1503	1479	3302
1511	1466	3307
1510	1481	3312
1504	1501	3316
1524	1484	3321
1523	1479	3325
1517	1475	3331
1527	1474	3335
1535	1485	3340
1530	1510	3345
1523	1525	3349
1517	1521	3354
1499	1534	3358
1491	1559	3363
1488	1600	3367
1501	1554	3373
1506	1511	3378
1507	1491	3382
1494	1494	3387
1483	1538	3391
1482	1522	3396
1494	1485	3401
1506	1469	3405
1518	1472	3410
1507	1518	3415
1487	1494	3420
1486	1474	3424
1503	1471	3429
1510	1479	3434
1498	1525	3438
1497	1617	3443
1522	1527	3447
1561	1479	3452
1557	1446	3458
1533	1447	3462
1503	1540	3467
1512	1538	3471
1561	1453	3476
1567	1433	3480
1539	1445	3485
1496	1488	3490
1482	1460	3494
1516	1409	3500
1547	1389	3504
1530	1405	3509
1508	1499	3513
1535	1459	3518
1552	1426	3523
1551	1409	3527
1544	1451	3532
1553	1535	3536
1574	1465	3542
1608	1424	3547
1641	1386	3551
1608	1438	3556
1562	1426	3560
1555	1406	3565
1590	1345	3569
1613	1332	3574
1580	1353	3579
1541	1421	3584
1528	1415	3589
1527	1380	3593
1515	1382	3598
1522	1396	3602
1531	1441	3607
1524	1502	3612
1521	1451	3616
1503	1447	3621
1467	1470	3625
1453	1591	3631
1434	1570	3636
1421	1515	3640
1415	1444	3645
1407	1425	3649
1431	1502	3654
1470	1464	3658
1470	1421	3663
1466	1412	3668
1431	1427	3673
1427	1488	3678
1455	1435	3682
1476	1409	3687
1476	1414	3691
1434	1491	3696
1379	1536	3701
1359	1469	3705
1413	1428	3710
1461	1419	3715
1479	1482	3720
1469	1578	3725
1436	1512	3729
1421	1439	3734
1437	1403	3738
1432	1405	3743
1406	1460	3747
1383	1453	3752
1430	1428	3758
1491	1424	3762
1522	1463	3767
1487	1532	3771
1441	1487	3776
1440	1442	3781
1454	1434	3785
1467	1433	3790
1470	1518	3794
1500	1532	3800
1520	1470	3804
1536	1442	3809
1532	1478	3814
1514	1593	3818
1485	1624	3823
1447	1488	3827
1495	1405	3832
1477	1397	3836
1496	1411	3842
1516	1380	3847
1526	1357	3851
1568	1331	3856
1580	1337	3860
1560	1373	3865
1542	1406	3870
1550	1426	3874
1590	1444	3879
1584	1479	3884
1540	1563	3889
1484	1631	3893
1486	1559	3898
1557	1530	3903
1596	1499	3907
1563	1451	3912
1511	1531	3916
1518	1557	3921
1534	1496	3926
1536	1433	3931
1510	1429	3936
1463	1514	3940
1466	1554	3945
1458	1427	3949
1509	1376	3954
1561	1456	3959
1563	1516	3963
1523	1415	3969
1457	1358	3973
1477	1324	3978
1520	1348	3982
1530	1465	3987
1528	1508	3992
1512	1483	3996
1500	1436	4001
1518	1402	4005
1522	1409	4011
1520	1535	4016
1516	1524	4020
1501	1464	4025
1469	1460	4029
1536	1509	4034
1558	1575	4038
1534	1564	4043
1510	1541	4048
1480	1538	4052
1485	1665	4058
1469	1710	4062
1466	1631	4067
1502	1533	4071
1573	1491	4076
1607	1572	4081
1629	1645	4085
1620	1633	4090
1604	1503	4094
1578	1465	4100
1595	1467	4105
1620	1525	4109
1602	1505	4114
1552	1486	4118
1479	1477	4123
1404	1490	4127
1423	1517	4132
1509	1630	4137
1546	1710	4142
1560	1710	4147
1533	1613	4151
1522	1558	4156
1554	1766	4160
1564	1815	4165
1525	1696	4170
1447	1658	4174
1404	1785	4179
1401	1767	4184
1403	1632	4189
1376	1509	4194
1386	1558	4198
1407	1599	4203
1418	1490	4207
1409	1422	4212
1414	1397	4216
1473	1376	4221
1492	1377	4227
1470	1398	4231
1418	1436	4236
1358	1470	4240
1364	1491	4245
1378	1623	4249
1418	1856	4254
1422	1727	4259
1430	1688	4263
1412	1757	4269
1415	1917	4273
1481	1897	4278
1484	1727	4283
1451	1676	4287
1404	1643	4292
1381	1481	4296
1366	1416	4301
1353	1395	4305
1367	1400	4311
1388	1452	4316
1405	1523	4320
1406	1518	4325
1406	1503	4329
1425	1602	4334
1412	1803	4338
1408	1704	4343
1423	1557	4348
1423	1468	4353
1469	1441	4358
1505	1596	4362
1514	1675	4367
1503	1662	4372
1499	1576	4376
1463	1455	4381
1519	1444	4385
1548	1640	4390
1564	1681	4395
1512	1548	4400
1448	1447	4405
1366	1390	4409
1415	1375	4414
1485	1423	4418
1508	1444	4423
1496	1437	4427
1473	1444	4432
1501	1473	4438
1550	1678	4442
1580	1805	4447
1557	1652	4451
1510	1522	4456
1486	1556	4461
1523	1587	4465
1495	1501	4470
1457	1454	4474
1460	1538	4480
1479	1620	4484
1480	1526	4489
1478	1420	4494
1463	1365	4498
1484	1358	4503
1523	1396	4507
1543	1480	4512
1517	1524	4516
1458	1477	4521
1477	1405	4527
1495	1361	4531
1477	1355	4536
1462	1527	4540
1483	1694	4545
1487	1647	4550
1508	1593	4554
1486	1684	4559
1501	1751	4563
1502	1628	4569
1522	1499	4573
1503	1400	4578
1521	1427	4583
1527	1416	4587
1505	1390	4592
1501	1339	4596
1467	1299	4601
1451	1309	4605
1467	1352	4611
1495	1504	4616
1534	1476	4620
1573	1433	4625
1633	1413	4629
1662	1442	4634
1661	1622	4639
1633	1603	4643
1568	1502	4648
1524	1440	4653
1536	1477	4658
1561	1602	4662
1556	1556	4667
1524	1562	4672
1521	1607	4676
1542	1530	4681
1520	1435	4685
1518	1417	4690
1503	1406	4696
1519	1376	4700
1512	1372	4705
1486	1477	4709
1458	1559	4714
1431	1496	4718
1413	1419	4723
1405	1385	4728
1428	1394	4732
1455	1539	4738
1439	1581	4742
1411	1513	4747
1405	1444	4751
1449	1431	4756
1495	1483	4761
1481	1578	4765
1466	1627	4770
1437	1539	4774
1393	1405	4780
1363	1397	4785
1360	1450	4789
1416	1539	4794
1450	1698	4798
1501	1633	4803
1513	1555	4807
1487	1470	4812
1459	1409	4817
1460	1382	4822
1431	1364	4827
1410	1354	4831
1396	1443	4836
1378	1497	4840
1351	1441	4845
1359	1469	4850
1389	1420	4854
1397	1416	4859
1429	1539	4864
1471	1643	4869
1496	1582	4874
1463	1497	4878
1451	1455	4883
1457	1450	4887
1452	1467	4892
1434	1420	4896
1393	1394	4901
1378	1408	4907
1399	1455	4911
1427	1465	4916
1452	1469	4920
1490	1542	4925
1520	1693	4929
1540	1660	4934
1562	1558	4939
1550	1489	4943
1530	1486	4948
1508	1559	4953
1492	1683	4958
1505	1607	4963
1513	1473	4967
1491	1425	4972
1420	1445	4976
1436	1527	4981
1495	1550	4985
1539	1504	4990
1530	1406	4996
1512	1383	5000
1482	1472	5005
1474	1650	5009
1481	1559	5014
1477	1418	5019
1469	1369	5023
1478	1360	5028
1501	1441	5032
1532	1715	5038
1510	1706	5042
1482	1602	5047
1477	1507	5052
1456	1550	5056
1461	1586	5061
1475	1555	5065
1456	1490	5070
1463	1449	5074
1502	1539	5080
1527	1650	5085
1529	1583	5089
1535	1512	5094
1465	1517	5098
1474	1525	5103
1529	1577	5108
1526	1650	5112
1502	1612	5117
1452	1500	5122
1473	1459	5127
1511	1450	5131
1526	1473	5136
1509	1615	5141
1518	1766	5145
1512	1732	5150
1492	1601	5154
1446	1499	5159
1471	1459	5164
1511	1490	5169
1568	1526	5174
1632	1521	5178
1656	1483	5183
1617	1472	5187
1592	1513	5192
1591	1716	5197
1589	1721	5201
1533	1644	5207
1483	1537	5211
1528	1495	5216
1562	1551	5220
1576	1650	5225
1557	1541	5230
1517	1460	5234
1494	1474	5239
1474	1626	5243
1467	1648	5249
1453	1560	5254
1447	1441	5258
1422	1414	5263
1461	1439	5267
1504	1569	5272
1481	1582	5276
1453	1496	5281
1417	1474	5286
1421	1507	5291
1446	1580	5296
1459	1653	5300
1454	1620	5305
1419	1528	5309
1401	1476	5314
1391	1539	5319
1441	1582	5323
1458	1536	5328
1454	1480	5332
1451	1427	5338
1417	1512	5343
1405	1764	5347
1419	1709	5352
1431	1569	5356
1432	1454	5361
1446	1435	5365
1432	1640	5370
1426	1817	5376
1440	1620	5380
1400	1472	5385
1372	1419	5389
1396	1444	5394
1423	1532	5398
1418	1515	5403
1357	1431	5408
1398	1402	5412
1445	1413	5417
1454	1515	5422
1439	1533	5427
1457	1572	5432
1482	1632	5436
1485	1766	5441
1468	1676	5445
1465	1584	5450
1491	1474	5454
1515	1428	5459
1513	1504	5465
1504	1703	5469
1487	1823	5474
1457	1564	5478
1432	1409	5483
1453	1409	5487
1466	1526	5492
1441	1690	5497
1359	1645	5501
1380	1560	5507
1386	1470	5511
1443	1508	5516
1508	1559	5521
1543	1584	5525
1549	1533	5530
1510	1627	5534
1510	1682	5539
1529	1644	5543
1549	1514	5549
1570	1420	5554
1553	1483	5558
1562	1544	5563
1521	1533	5567
1474	1548	5572
1422	1433	5577
1437	1403	5581
1434	1413	5586
1430	1440	5591
1406	1476	5596
1434	1507	5600
1501	1524	5605
1547	1521	5610
1561	1718	5614
1541	1681	5619
1498	1615	5623
1465	1524	5628
1467	1577	5633
1478	1812	5638
1491	2007	5643
1519	1868	5647
1515	1688	5652
1481	1655	5656
1509	1502	5661
1523	1491	5666
1482	1631	5670
1467	1605	5676
1463	1488	5680
1431	1478	5685
1423	1474	5689
1479	1477	5694
1530	1559	5699
1584	1550	5703
1587	1563	5708
1592	1587	5712
1592	1714	5718
1581	1931	5722
1545	1934	5727
1534	1739	5732
1536	1654	5736
1584	1777	5741
1628	1681	5745
1622	1611	5750
1601	1664	5755
1589	1590	5760
1598	1541	5765
1582	1448	5769
1521	1494	5774
1491	1615	5778
1534	1619	5783
1591	1581	5788
1606	1458	5792
1536	1441	5797
1508	1547	5801
1491	1574	5807
1485	1582	5811
1479	1541	5816
1427	1487	5821
1401	1476	5825
1435	1545	5830
1496	1721	5834
1555	1631	5839
1544	1542	5844
1508	1511	5849
1480	1552	5854
1500	1604	5858
1472	1696	5863
1469	1636	5867
1580	1570	5872
1594	1546	5877
1533	1614	5881
1463	1515	5886
1409	1484	5891
1392	1395	5896
1424	1362	5900
1481	1392	5905
1514	1494	5910
1522	1581	5914
1475	1580	5919
1407	1476	5923
1370	1439	5928
1427	1385	5934
1461	1384	5938
1455	1472	5943
1408	1551	5947
1375	1470	5952
1393	1453	5956
1454	1392	5961
1503	1403	5966
1515	1490	5970
1465	1574	5976
1420	1491	5980
1423	1499	5985
1442	1568	5990
1458	1536	5994
1428	1423	5999
1481	1371	6003
1495	1305	6008
1468	1303	6012
1465	1321	6018
1501	1345	6023
1526	1366	6027
1496	1347	6032
1445	1354	6036
1415	1425	6041
1452	1507	6045
1495	1483	6050
1527	1511	6055
1594	1430	6060
1606	1491	6065
1620	1486	6069
1560	1411	6074
1523	1353	6079
1504	1399	6083
1454	1362	6088
1455	1326	6092
1444	1264	6097
1463	1294	6102
1495	1311	6107
1505	1392	6112
1540	1294	6116
1596	1283	6121
1590	1312	6125
1560	1279	6130
1522	1278	6134
1589	1323	6139
1652	1394	6145
1565	1378	6149
1485	1431	6154
1433	1454	6158
1447	1422	6163
1486	1482	6168
1498	1556	6172
1503	1439	6177
1514	1336	6181
1535	1368	6187
1559	1440	6191
1533	1370	6196
1482	1316	6201
1434	1294	6205
1428	1314	6210
1435	1382	6214
1464	1421	6219
1471	1332	6224
1463	1248	6228
1499	1211	6234
1548	1216	6238
1526	1281	6243
1549	1399	6247
1618	1364	6252
1661	1352	6257
1646	1380	6261
1621	1366	6266
1556	1333	6270
1484	1308	6276
1485	1270	6280
1470	1230	6285
1479	1246	6290
1584	1302	6294
1655	1376	6299
1605	1282	6303
1628	1204	6308
1655	1172	6313
1627	1274	6318
1610	1238	6323
1579	1222	6327
1521	1245	6332
1490	1223	6336
1565	1173	6341
1584	1148	6346
1592	1182	6350
1611	1229	6355
1596	1204	6360
1531	1248	6365
1505	1399	6370
1476	1367	6374
1478	1276	6379
1502	1179	6383
1578	1164	6388
1673	1153	6392
1607	1196	6397
1482	1344	6403
1422	1368	6407
1423	1227	6412
1479	1175	6416
1449	1205	6421
1390	1182	6425
1388	1225	6430
1366	1248	6435
1326	1252	6439
1376	1260	6445
1458	1244	6449
1466	1266	6454
1507	1328	6459
1578	1308	6463
1492	1296	6468
1396	1247	6472
1362	1295	6477
1365	1263	6481
1386	1291	6487
1427	1235	6492
1418	1211	6496
1415	1193	6501
1447	1200	6505
1495	1238	6510
1594	1228	6514
1571	1243	6519
1464	1319	6524
1395	1290	6529
1344	1308	6534
1333	1309	6538
1317	1286	6543
1363	1220	6548
1450	1229	6552
1509	1253	6557
1634	1366	6561
1603	1305	6566
1502	1244	6571
1483	1196	6576
1561	1180	6581
1543	1206	6585
1486	1279	6590
1423	1403	6594
1390	1326	6599
1371	1280	6603
1427	1262	6608
1476	1273	6614
1535	1335	6618
1614	1411	6623
1590	1382	6627
1523	1368	6632
1522	1347	6637
1505	1408	6641
1494	1420	6646
1535	1429	6650
1574	1353	6656
1566	1302	6660
1526	1299	6665
1510	1374	6670
1530	1450	6674
1533	1368	6679
1664	1373	6683
1602	1308	6688
1534	1283	6692
1527	1334	6697
1519	1375	6703
1478	1364	6707
1482	1386	6712
1528	1354	6716
1570	1361	6721
1547	1402	6726
1512	1517	6730
1452	1453	6735
1467	1400	6739
1513	1342	6745
1614	1364	6749
1632	1459	6754
1597	1466	6759
1449	1344	6763
1384	1302	6768
1401	1308	6772
1419	1334	6777
1481	1383	6782
1485	1433	6787
1434	1468	6792
1385	1466	6796
1432	1494	6801
1586	1515	6805
1546	1516	6810
1552	1491	6815
1550	1534	6819
1550	1547	6824
1465	1554	6829
1404	1507	6834
1382	1438	6838
1360	1431	6843
1387	1416	6848
1439	1486	6852
1503	1383	6857
1585	1369	6861
1618	1379	6866
1642	1412	6872
1638	1439	6876
1633	1472	6881
1578	1488	6885
1547	1460	6890
1513	1497	6894
1493	1539	6899
1468	1454	6904
1480	1464	6908
1534	1481	6914
1506	1457	6918
1475	1508	6923
1415	1501	6927
1466	1512	6932
1517	1527	6937
1524	1540	6941
1416	1495	6946
1361	1497	6950
1365	1561	6956
1423	1513	6961
1427	1433	6965
1401	1418	6970
1406	1418	6974
1409	1434	6979
1409	1536	6983
1455	1602	6988
1453	1510	6993
1448	1469	6998
1374	1479	7003
1344	1489	7007
1373	1557	7012
1402	1515	7016
1406	1493	7021
1397	1484	7026
1382	1517	7030
1382	1556	7035
1428	1589	7040
1400	1571	7045
1340	1556	7050
1340	1511	7054
1389	1510	7059
1394	1502	7063
1401	1513	7068
1434	1482	7072
1415	1483	7077
1415	1542	7083
1453	1515	7087
1404	1500	7092
1372	1507	7096
1350	1515	7101
1358	1541	7106
1423	1503	7110
1392	1479	7115
1366	1492	7119
1360	1503	7124
1366	1507	7129
1398	1523	7134
1442	1554	7139
1520	1591	7143
1571	1628	7148
1519	1572	7152
1481	1509	7157
1444	1485	7161
1432	1538	7166
1452	1552	7172
1444	1514	7176
1432	1473	7181
1445	1469	7185
1454	1469	7190
1518	1543	7195
1555	1485	7199
1542	1445	7204
1518	1430	7208
1495	1444	7214
1468	1541	7218
1443	1511	7223
1415	1470	7228
1391	1450	7232
1417	1448	7237
1446	1480	7241
1509	1507	7246
1508	1506	7251
1537	1510	7256
1565	1539	7261
1556	1643	7265
1528	1597	7270
1454	1589	7274
1396	1557	7279
1373	1521	7284
1424	1539	7288
1457	1516	7293
1444	1435	7298
1438	1383	7303
1432	1415	7307
1452	1375	7312
1498	1377	7317
1520	1378	7321
1486	1405	7326
1511	1492	7330
1511	1538	7335
1520	1458	7341
1524	1417	7345
1457	1413	7350
1409	1467	7354
1369	1575	7359
1423	1503	7363
1528	1457	7368
1554	1447	7373
1513	1488	7377
1475	1547	7383
1469	1514	7387
1456	1484	7392
1534	1466	7396
1573	1521	7401
1539	1568	7406
1522	1501	7410
1525	1489	7415
1583	1586	7419
1623	1587	7425
1596	1470	7430
1572	1427	7434
1554	1421	7439
1534	1429	7443
1531	1454	7448
1532	1523	7452
1494	1499	7457
1454	1558	7462
1478	1498	7467
1498	1490	7472
1506	1528	7476
1513	1561	7481
1486	1580	7485
1434	1539	7490
1415	1523	7495
1379	1516	7499
1413	1570	7504
1437	1636	7508
1452	1590	7514
1461	1520	7519
1444	1514	7523
1481	1603	7528
1476	1572	7532
1444	1535	7537
1401	1637	7541
1361	1552	7546
1336	1464	7552
1354	1418	7556
1416	1410	7561
1480	1466	7565
1490	1564	7570
1497	1471	7575
1471	1438	7579
1441	1436	7584
1439	1563	7588
1451	1623	7593
1444	1518	7598
1427	1443	7603
1390	1479	7608
1396	1536	7612
1420	1532	7617
1366	1421	7621
1354	1375	7626
1417	1382	7630
1464	1396	7635
1462	1459	7641
1413	1470	7645
1403	1409	7650
1459	1440	7654
1507	1603	7659
1515	1587	7664
1481	1461	7668
1436	1348	7673
1429	1317	7677
1460	1319	7683
1529	1355	7687
1513	1397	7692
1505	1425	7697
1529	1457	7701
1547	1495	7706
1546	1539	7710
1488	1575	7715
1441	1573	7719
1437	1591	7725
1421	1667	7730
1442	1736	7734
1496	1694	7739
1549	1631	7743
1522	1607	7748
1559	1681	7753
1562	1755	7757
1540	1602	7762
1535	1515	7767
1530	1488	7772
1514	1500	7776
1481	1462	7781
1402	1443	7786
1402	1426	7790
1470	1435	7795
1532	1431	7799
1581	1518	7804
1541	1638	7810
1501	1574	7814
1510	1507	7819
1498	1451	7823
1518	1448	7828
1592	1588	7832
1620	1570	7837
1539	1513	7842
1472	1480	7846
1428	1477	7852
1427	1567	7856
1469	1681	7861
1456	1589	7865
1441	1543	7870
1438	1507	7875
1534	1458	7879
1600	1445	7884
1572	1509	7888
1562	1478	7894
1533	1467	7899
1504	1467	7903
1488	1476	7908
1478	1548	7912
1475	1664	7917
1532	1650	7921
1538	1561	7926
1510	1544	7931
1474	1530	7936
1489	1531	7941
1577	1617	7945
1642	1609	7950
1650	1592	7954
1635	1557	7959
1559	1494	7964
1530	1528	7968
1571	1531	7973
1580	1596	7977
1564	1518	7983
1599	1497	7988
1620	1473	7992
1623	1611	7997
1622	1558	8001
1610	1464	8006
1566	1429	8010
1501	1495	8015
1446	1677	8020
1398	1587	8025
1400	1459	8030
1438	1429	8034
1488	1442	8039
1529	1457	8044
1545	1507	8048
1521	1564	8053
1533	1528	8057
1495	1513	8062
1460	1525	8067
1441	1525	8072
1450	1538	8077
1441	1674	8081
1417	1680	8086
1387	1551	8090
1381	1517	8095
1425	1471	8099
1485	1473	8104
1518	1548	8110
1508	1562	8114
1487	1635	8119
1450	1708	8123
1394	1633	8128
1393	1565	8133
1427	1607	8137
1446	1652	8142
1476	1583	8146
1485	1540	8152
1464	1531	8156
1407	1639	8161
1392	1586	8166
1407	1505	8170
1429	1471	8175
1451	1469	8179
1454	1560	8184
1474	1579	8188
1522	1542	8194
1497	1520	8199
1455	1528	8203
1480	1643	8208
1473	1609	8212
1448	1562	8217
1436	1576	8222
1445	1715	8226
1482	1587	8231
1502	1506	8236
1513	1530	8241
1473	1477	8245
1460	1503	8250
1513	1545	8255
1572	1639	8259
1570	1505	8264
1541	1451	8268
1507	1479	8273
1517	1510	8278
1556	1475	8283
1531	1496	8288
1517	1473	8292
1481	1407	8297
1408	1412	8301
1423	1488	8306
1485	1582	8311
1539	1559	8315
1559	1531	8321
1572	1464	8325
1535	1471	8330
1501	1532	8334
1506	1605	8339
1512	1655	8344
1498	1565	8348
1449	1481	8353
1453	1482	8357
1476	1570	8363
1483	1632	8368
1452	1611	8372
1413	1452	8377
1399	1361	8381
1449	1347	8386
1474	1393	8390
1532	1476	8395
1536	1423	8400
1559	1369	8404
1546	1374	8410
1506	1501	8414
1469	1675	8419
1492	1485	8423
1520	1415	8428
1492	1396	8433
1451	1417	8437
1505	1509	8442
1564	1571	8446
1600	1565	8452
1563	1630	8457
1520	1615	8461
1474	1662	8466
1448	1596	8470
1398	1545	8475
1427	1516	8479
1539	1540	8484
1605	1517	8489
1602	1506	8494
1585	1455	8499
1607	1455	8503
1622	1505	8508
1618	1525	8512
1629	1507	8517
1589	1491	8522
1530	1455	8526
1508	1514	8531
1534	1539	8536
1554	1499	8541
1533	1442	8546
1514	1407	8550
1495	1514	8555
1480	1561	8559
1394	1493	8564
1393	1453	8568
1469	1398	8573
1503	1366	8579
1479	1417	8583
1473	1546	8588
1508	1594	8592
1522	1533	8597
1550	1429	8601
1529	1386	8606
1473	1432	8611
1447	1635	8615
1460	1588	8621
1428	1505	8625
1396	1471	8630
1405	1412	8635
1470	1389	8639
1512	1478	8644
1480	1616	8648
1435	1604	8653
1425	1503	8657
1447	1523	8663
1424	1508	8668
1387	1506	8672
1372	1512	8677
1419	1427	8681
1463	1403	8686
1473	1403	8690
1480	1418	8695
1522	1498	8700
1518	1476	8705
1497	1536	8710
1529	1675	8714
1540	1693	8719
1529	1613	8724
1495	1563	8728
1431	1548	8733
1333	1476	8737
1341	1451	8742
1418	1502	8747
1487	1463	8752
1531	1419	8757
1482	1416	8761
1482	1508	8766
1523	1631	8770
1566	1655	8775
1565	1551	8779
1518	1434	8784
1408	1372	8790
1337	1402	8794
1412	1496	8799
1505	1489	8803
1547	1433	8808
1560	1441	8813
1585	1516	8817
1587	1689	8822
1594	1592	8826
1588	1540	8832
1549	1441	8836
1559	1447	8841
1526	1524	8846
1473	1463	8850
1464	1405	8855
1484	1377	8859
1489	1383	8864
1484	1439	8868
1480	1478	8873
1491	1520	8879
1474	1660	8883
1472	1609	8888
1490	1578	8892
1534	1578	8897
1546	1519	8902
1513	1463	8906
1477	1495	8911
1437	1618	8915
1447	1567	8921
1512	1506	8925
1547	1582	8930
1538	1630	8935
1527	1631	8939
1439	1598	8944
1407	1688	8948
1452	1605	8953
1521	1471	8958
1606	1423	8963
1624	1441	8968
1591	1509	8972
1556	1618	8977
1519	1619	8981
1498	1515	8986
1463	1416	8991
1409	1590	8995
1418	1818	9000
1460	1702	9005
1473	1557	9010
1527	1500	9014
1627	1481	9019
1681	1494	9024
1679	1522	9028
1635	1487	9033
1578	1449	9037
1531	1442	9042
1514	1415	9048
1486	1433	9052
1476	1547	9057
1528	1679	9061
1583	1546	9066
1577	1517	9070
1545	1656	9075
1508	1769	9080
1518	1729	9084
1535	1606	9090
1491	1573	9094
1461	1479	9099
1481	1494	9103
1509	1494	9108
1509	1535	9113
1524	1565	9117
1510	1513	9122
1479	1398	9126
1435	1392	9132
1437	1438	9137
1455	1500	9141
1467	1558	9146
1501	1559	9150
1501	1491	9155
1505	1493	9159
1485	1548	9164
1494	1555	9169
1515	1522	9174
1519	1545	9179
1513	1607	9183
1482	1512	9188
1446	1436	9192
1400	1520	9197
1361	1498	9202
1371	1396	9206
1448	1423	9211
1508	1483	9216
1482	1480	9221
1474	1432	9226
1458	1397	9230
1454	1422	9235
1482	1615	9239
1500	1820	9244
1492	1697	9248
1471	1548	9253
1497	1475	9259
1512	1558	9263
1521	1829	9268
1499	1704	9272
1488	1551	9277
1505	1477	9282
1541	1519	9286
1503	1527	9291
1453	1424	9295
1408	1352	9300
1422	1328	9305
1480	1342	9310
1502	1482	9315
1496	1628	9319
1474	1552	9324
1541	1488	9328
1578	1441	9333
1559	1476	9337
1526	1589	9342
1521	1517	9348
1541	1422	9352
1535	1369	9357
1513	1407	9361
1498	1576	9366
1495	1820	9371
1504	1806	9375
1514	1602	9380
1463	1471	9384
1412	1430	9390
1490	1561	9394
1573	1564	9399
1587	1511	9404
1549	1440	9408
1460	1454	9413
1416	1518	9417
1441	1512	9422
1471	1400	9427
1501	1375	9432
1454	1382	9437
1479	1463	9441
1539	1568	9446
1549	1483	9450
1526	1428	9455
1530	1416	9460
1535	1543	9464
1528	1866	9469
1524	1899	9474
1500	1663	9479
1475	1502	9483
1478	1469	9488
1510	1465	9493
1548	1480	9497
1553	1461	9502
1519	1398	9506
1495	1423	9511
1444	1461	9517
1408	1450	9521
1440	1427	9526
1498	1495	9530
1530	1690	9535
1550	1726	9539
1599	1767	9544
1641	1603	9549
1606	1468	9553
1581	1449	9559
1594	1513	9563
1597	1451	9568
1479	1424	9572
1497	1471	9577
1544	1602	9582
1550	1565	9586
1459	1624	9591
1434	1556	9595
1485	1494	9601
1530	1433	9606
1547	1385	9610
1551	1454	9615
1539	1619	9619
1532	1617	9624
1414	1534	9628
1313	1505	9633
1378	1541	9638
1529	1703	9643
1595	1768	9648
1559	1708	9652
1503	1647	9657
1423	1546	9662
1363	1584	9666
1376	1545	9671
1430	1505	9675
1468	1604	9680
1449	1697	9684
1438	1581	9690
1456	1529	9695
1518	1530	9699
1559	1640	9704
1499	1632	9708
1469	1501	9713
1416	1459	9717
1344	1473	9722
1338	1434	9728
1400	1459	9732
1432	1566	9737
1450	1634	9741
1387	1561	9746
1439	1636	9751
1494	1763	9755
1516	1756	9760
1532	1795	9764
1572	1800	9769
1614	1603	9774
1596	1549	9779
1494	1593	9784
1448	1606	9788
1446	1498	9793
1397	1460	9797
1376	1492	9802
1383	1481	9806
1422	1548	9811
1483	1539	9817
1521	1532	9821
1540	1557	9826
1585	1456	9830
1611	1458	9835
1585	1634	9840
1549	1870	9844
1519	1848	9849
1475	1665	9853
1450	1560	9859
1417	1451	9863
1397	1473	9868
1451	1650	9873
1526	1542	9877
1578	1381	9882
1559	1345	9886
1512	1439	9891
1505	1644	9896
1524	1751	9901
1530	1638	9906
1567	1488	9910
1536	1559	9915
1500	1551	9919
1481	1514	9924
1406	1659	9929
1400	1569	9933
1453	1448	9938
1485	1507	9943
1511	1524	9948
1557	1537	9952
1570	1488	9957
1534	1448	9962
1583	1639	9966
1589	1885	9971
1562	1972	9975
1573	1850	9980
1556	1772	9986
1524	1664	9990
1481	1490	9995
1463	1392	9999
1462	1400	10004
1423	1406	10008
1488	1397	10013
1560	1445	10018
1546	1595	10022
1495	1658	10028
1437	1706	10033
1503	1525	10037
1605	1442	10042
1613	1447	10047
1574	1712	10051
1527	1879	10056
1523	1618	10060
1520	1459	10065
1515	1387	10071
1531	1444	10075
1561	1572	10080
1654	1613	10085
1627	1471	10089
1595	1418	10094
1649	1521	10098
1618	1676	10103
1552	1653	10108
1518	1525	10113
1476	1430	10118
1430	1387	10123
1443	1473	10127
1494	1586	10132
1527	1573	10136
1539	1495	10141
1550	1518	10146
1595	1575	10150
1668	1665	10156
1640	1809	10161
1579	1670	10165
1501	1552	10170
1428	1517	10175
1419	1425	10179
1425	1427	10184
1425	1458	10188
1428	1392	10193
1446	1325	10199
1382	1334	10203
1370	1400	10208
1473	1440	10213
1558	1602	10217
1545	1850	10222
1469	1715	10226
1438	1535	10231
1454	1411	10236
1536	1347	10241
1567	1327	10246
1485	1344	10251
1439	1371	10255
1410	1515	10260
1401	1568	10264
1431	1456	10269
1437	1381	10274
1412	1410	10278
1415	1589	10284
1417	1536	10289
1343	1391	10293
1388	1325	10298
1573	1311	10302
1644	1355	10307
1536	1421	10312
1409	1472	10316
1356	1487	10321
1406	1406	10327
1483	1424	10331
1541	1422	10336
1525	1310	10341
1402	1325	10345
1470	1408	10350
1584	1385	10354
1658	1362	10359
1618	1340	10364
1500	1369	10369
1457	1357	10374
1454	1303	10379
1431	1299	10383
1415	1316	10388
1450	1388	10392
1483	1486	10397
1541	1470	10402
1583	1432	10406
1537	1354	10412
1526	1337	10417
1561	1452	10421
1579	1591	10426
1649	1487	10430
1602	1340	10435
1489	1302	10440
1453	1294	10444
1443	1342	10449
1475	1435	10455
1503	1450	10459
1464	1325	10464
1454	1291	10469
1536	1307	10473
1607	1383	10478
1531	1442	10482
1451	1343	10487
1468	1283	10492
1486	1327	10497
1470	1450	10502
1478	1381	10507
1496	1341	10511
1478	1350	10516
1489	1386	10520
1537	1365	10525
1579	1355	10530
1612	1303	10534
1588	1363	10540
1539	1404	10545
1498	1387	10549
1473	1368	10554
1485	1333	10558
1498	1343	10563
1489	1314	10568
1544	1234	10572
1577	1252	10577
1622	1258	10583
1619	1320	10587
1617	1421	10592
1621	1330	10596
1635	1265	10601
1623	1336	10606
1585	1283	10610
1549	1227	10615
1546	1188	10620
1543	1301	10625
1594	1339	10630
1610	1311	10635
1591	1209	10639
1567	1190	10644
1499	1190	10648
1438	1213	10653
1466	1283	10658
1473	1272	10662
1450	1225	10668
1402	1230	10673
1396	1231	10677
1512	1302	10682
1542	1317	10686
1498	1266	10691
1444	1258	10696
1472	1242	10700
1505	1294	10705
1521	1401	10711
1543	1367	10715
1478	1367	10720
1359	1290	10724
1329	1227	10729
1406	1226	10734
1496	1284	10738
1524	1360	10743
1468	1319	10748
1432	1311	10753
1430	1315	10758
1418	1349	10763
1390	1262	10767
1408	1267	10772
1443	1245	10776
1489	1184	10781
1545	1198	10786
1525	1241	10790
1466	1300	10796
1450	1297	10801
1378	1253	10805
1324	1236	10810
1337	1242	10814
1411	1368	10819
1481	1307	10824
1549	1268	10828
1508	1212	10833
1437	1223	10839
1389	1259	10843
1400	1385	10848
1486	1366	10852
1521	1378	10857
1428	1365	10862
1380	1362	10866
1417	1413	10871
1486	1405	10876
1535	1438	10881
1591	1384	10886
1583	1336	10891
1603	1346	10895
1601	1387	10900
1531	1416	10904
1456	1453	10909
1532	1475	10914
1559	1359	10918
1483	1341	10924
1428	1385	10929
1418	1481	10933
1416	1408	10938
1510	1368	10942
1621	1348	10947
1582	1360	10952
1653	1512	10956
1648	1464	10961
1559	1445	10967
1546	1337	10971
1504	1334	10976
1414	1342	10980
1414	1438	10985
1498	1463	10990
1482	1358	10994
1415	1321	10999
1425	1331	11004
1501	1375	11009
1499	1497	11014
1469	1580	11019
1454	1442	11023
1476	1393	11028
1523	1386	11032
1610	1404	11037
1578	1444	11042
1598	1520	11046
1512	1524	11052
1431	1515	11057
1435	1528	11061
1435	1536	11066
1455	1578	11070
1484	1646	11075
1451	1587	11080
1483	1506	11084
1435	1466	11089
1486	1450	11095
1563	1488	11099
1604	1496	11104
1570	1545	11108
1569	1494	11113
1602	1481	11118
1599	1480	11122
1624	1507	11127
1625	1583	11132
1580	1516	11137
1525	1454	11142
1527	1444	11147
1642	1521	11151
1655	1550	11156
1552	1538	11160
1400	1472	11165
1372	1420	11170
1600	1414	11174
1606	1432	11180
1506	1469	11185
1447	1487	11189
1389	1486	11194
1368	1493	11198
1413	1512	11203
1433	1525	11208
1410	1596	11212
1402	1636	11217
1472	1555	11223
1489	1521	11227
1502	1504	11232
1476	1495	11236
1404	1620	11241
1312	1631	11246
1254	1519	11250
1272	1456	11255
1331	1416	11260
1427	1433	11265
1421	1423	11270
1438	1423	11275
1442	1448	11279
1490	1470	11284
1491	1498	11288
1439	1540	11293
1365	1570	11298
1332	1576	11302
1357	1611	11308
1494	1600	11313
1431	1560	11317
1391	1526	11322
1401	1519	11326
1404	1575	11331
1472	1578	11336
1449	1548	11340
1389	1538	11345
1347	1521	11351
1328	1529	11355
1368	1554	11360
1410	1521	11365
1425	1507	11369
1404	1517	11374
1383	1561	11378
1383	1580	11383
1477	1572	11388
1534	1526	11393
1523	1502	11398
1497	1490	11403
1468	1518	11407
1471	1559	11412
1440	1548	11416
1443	1514	11421
1523	1508	11426
1495	1514	11430
1485	1617	11436
1444	1578	11441
1453	1486	11445
1464	1437	11450
1467	1468	11454
1497	1517	11459
1509	1444	11464
1489	1405	11468
1464	1390	11473
1461	1419	11479
1498	1564	11483
1564	1482	11488
1499	1425	11493
1484	1395	11497
1427	1403	11502
1403	1470	11506
1407	1457	11511
1403	1453	11516
1438	1466	11521
1487	1585	11526
1530	1560	11531
1509	1512	11535
1509	1475	11540
1522	1549	11544
1511	1520	11549
1464	1446	11554
1406	1388	11558
1412	1376	11564
1481	1403	11569
1507	1497	11573
1490	1470	11578
1433	1420	11582
1390	1398	11587
1424	1478	11592
1460	1545	11596
1483	1460	11601
1506	1416	11607
1546	1370	11611
1542	1346	11616
1536	1425	11621
1483	1403	11625
1456	1410	11630
1485	1426	11634
1518	1480	11639
1566	1602	11644
1605	1617	11649
1591	1504	11654
1601	1433	11659
1614	1413	11663
1623	1464	11668
1580	1483	11672
1544	1434	11677
1488	1412	11682
1443	1418	11686
1447	1458	11692
1470	1555	11697
1478	1517	11701
1486	1462	11706
1489	1466	11710
1481	1597	11715
1459	1657	11720
1437	1568	11724
1426	1474	11729
1402	1408	11735
1375	1470	11739
1384	1451	11744
1408	1438	11748
1442	1421	11753
1478	1409	11758
1500	1426	11762
1527	1549	11767
1532	1683	11772
1401	1649	11777
1329	1510	11782
1349	1374	11787
1334	1351	11791
1325	1345	11796
1347	1351	11800
1392	1372	11805
1433	1391	11810
1458	1442	11814
1466	1508	11820
1478	1516	11825
1504	1557	11829
1512	1705	11834
1462	1765	11838
1409	1669	11843
1353	1539	11848
1322	1471	11852
1293	1458	11857
1331	1491	11863
1394	1486	11867
1417	1485	11872
1409	1496	11876
1430	1540	11881
1478	1667	11886
1484	1634	11890
1478	1613	11895
1451	1528	11900
1409	1623	11905
1384	1610	11910
1420	1475	11915
1459	1385	11919
1486	1373	11924
1520	1403	11928
1556	1488	11933
1552	1489	11938
1537	1540	11942
1527	1516	11948
1528	1455	11953
1532	1472	11957
1527	1608	11962
1479	1488	11966
1428	1406	11971
1394	1372	11976
1427	1380	11980
1474	1414	11985
1508	1454	11991
1498	1486	11995
1501	1499	12000
1553	1589	12004
1592	1844	12009
1564	1886	12014
1470	1670	12018
1468	1494	12023
1483	1445	12028
1499	1502	12033
1482	1417	12038
1417	1377	12043
1393	1381	12047
1408	1404	12052
1440	1449	12056
1457	1550	12061
1479	1533	12066
1500	1528	12070
1566	1598	12076
1580	1643	12081
1529	1566	12085
1523	1487	12090
1535	1446	12094
1537	1471	12099
1503	1572	12104
1493	1534	12108
1491	1520	12113
1475	1473	12119
1470	1476	12123
1509	1589	12128
1617	1623	12133
1634	1556	12137
1559	1529	12142
1470	1546	12146
1404	1467	12151
1415	1368	12156
1466	1328	12161
1513	1338	12166
1558	1356	12171
1600	1414	12175
1634	1447	12180
1657	1457	12184
1669	1469	12189
1672	1660	12194
1645	1731	12198
1610	1712	12204
1554	1548	12209
1495	1429	12213
1454	1376	12218
1490	1362	12222
1544	1379	12227
1591	1419	12232
1597	1462	12236
1519	1471	12241
1458	1529	12247
1476	1674	12251
1531	1570	12256
1520	1534	12261
1468	1493	12265
1455	1426	12270
1497	1481	12274
1518	1461	12279
1477	1411	12284
1489	1393	12289
1459	1394	12294
1395	1428	12299
1395	1470	12303
1403	1498	12308
1430	1478	12312
1492	1577	12317
1457	1677	12322
1405	1636	12326
1386	1574	12332
1440	1514	12337
1487	1435	12341
1474	1421	12346
1381	1420	12350
1341	1374	12355
1374	1329	12360
1407	1322	12364
1439	1347	12369
1471	1546	12375
1492	1587	12379
1499	1483	12384
1460	1451	12388
1432	1473	12393
1426	1551	12398
1424	1563	12402
1415	1454	12407
1403	1394	12412
1406	1404	12417
1404	1506	12422
1420	1579	12427
1438	1581	12431
1421	1493	12436
1426	1456	12440
1477	1381	12445
1570	1388	12450
1580	1445	12454
1573	1431	12460
1543	1538	12465
1509	1661	12469
1489	1611	12474
1470	1491	12478
1437	1626	12483
1413	1633	12488
1407	1469	12492
1457	1397	12497
1528	1351	12503
1571	1342	12507
1515	1356	12512
1498	1415	12516
1489	1498	12521
1532	1609	12526
1545	1537	12530
1526	1627	12535
1497	1739	12540
1480	1585	12545
1461	1436	12550
1446	1325	12555
1486	1311	12559
1524	1424	12564
1573	1485	12568
1530	1390	12573
1502	1353	12578
1479	1373	12582
1495	1482	12588
1554	1778	12593
1564	1698	12597
1477	1580	12602
1401	1506	12606
1363	1471	12611
1412	1425	12616
1504	1421	12620
1554	1422	12625
1548	1425	12631
1530	1546	12635
1469	1622	12640
1412	1511	12644
1451	1465	12649
1520	1477	12654
1568	1534	12658
1555	1550	12663
1539	1703	12668
1544	1600	12673
1502	1426	12678
1483	1352	12683
1486	1364	12687
1486	1650	12692
1488	1651	12696
1478	1421	12701
1494	1327	12706
1504	1307	12710
1550	1307	12716
1611	1390	12721
1653	1534	12725
1658	1492	12730
1651	1413	12734
1623	1450	12739
1608	1498	12744
1589	1511	12748
1580	1492	12753
1565	1509	12759
1528	1513	12763
1509	1516	12768
1472	1489	12773
1498	1461	12777
1545	1484	12782
1551	1614	12786
1550	1653	12791
1528	1567	12796
1455	1547	12801
1416	1429	12806
1371	1392	12811
1391	1403	12815
1433	1438	12820
1454	1480	12824
1465	1491	12829
1473	1456	12834
1495	1512	12838
1518	1642	12844
1507	1584	12849
1482	1495	12853
1459	1413	12858
1433	1438	12862
1427	1434	12867
1430	1499	12872
1424	1479	12876
1416	1490	12881
1370	1538	12887
1369	1575	12891
1399	1620	12896
1424	1676	12901
1420	1737	12905
1376	1694	12910
1393	1606	12914
1421	1442	12919
1449	1397	12924
1462	1402	12929
1453	1495	12934
1446	1525	12939
1438	1457	12943
1458	1522	12948
1493	1749	12952
1485	1751	12957
1420	1643	12962
1370	1509	12966
1387	1384	12972
1432	1350	12977
1455	1406	12981
1467	1521	12986
1460	1559	12990
1448	1540	12995
1447	1563	13000
1413	1474	13004
1457	1577	13009
1557	1814	13015
1589	1821	13019
1558	1567	13024
1473	1502	13029
1437	1489	13033
1424	1413	13038
1421	1365	13042
1442	1349	13047
1464	1385	13052
1477	1587	13057
1516	1731	13062
1515	1539	13067
1495	1415	13071
1524	1379	13076
1509	1447	13080
1503	1618	13085
1502	1586	13090
1470	1558	13094
1425	1551	13100
1456	1480	13105
1500	1550	13109
1532	1493	13114
1543	1402	13118
1531	1367	13123
1540	1386	13128
1574	1481	13132
1540	1598	13137
1499	1658	13143
1460	1573	13147
1439	1761	13152
1388	1891	13157
1352	1643	13161
1414	1470	13166
1508	1400	13170
1569	1403	13175
1573	1394	13180
1543	1414	13185
1519	1537	13190
1489	1622	13195
1481	1555	13199
1487	1507	13204
1467	1569	13208
1457	1636	13213
1393	1527	13218
1431	1479	13222
1464	1473	13228
1487	1448	13233
1469	1422	13237
1457	1463	13242
1509	1626	13246
1578	1615	13251
1591	1575	13256
1541	1511	13260
1470	1483	13265
1402	1479	13271
1414	1565	13275
1485	1687	13280
1539	1669	13285
1551	1584	13289
1562	1545	13294
1568	1460	13298
1586	1418	13303
1624	1465	13308
1660	1519	13313
1685	1491	13318
1659	1457	13323
1613	1474	13327
1581	1535	13332
1545	1532	13336
1520	1551	13341
1518	1568	13346
1497	1477	13350
1514	1423	13356
1536	1459	13361
1541	1482	13365
1510	1521	13370
1481	1579	13374
1441	1565	13379
1439	1572	13384
1490	1587	13388
1481	1524	13393
1427	1615	13399
1409	1628	13403
1405	1600	13408
1412	1473	13412
1393	1462	13417
1404	1415	13422
1452	1429	13426
1508	1422	13431
1526	1423	13436
1537	1527	13441
1503	1617	13446
1465	1626	13451
1426	1767	13455
1422	1836	13460
1431	1755	13464
1441	1641	13469
1401	1550	13474
1397	1479	13478
1460	1494	13484
1496	1494	13489
1485	1468	13493
1472	1470	13498
1467	1577	13502
1469	1649	13507
1460	1548	13512
1415	1430	13516
1355	1415	13521
1361	1538	13527
1404	1729	13531
1404	1709	13536
1402	1605	13540
1394	1481	13545
1424	1478	13550
1470	1650	13554
1519	1612	13559
1508	1544	13564
1434	1500	13569
1450	1559	13574
1493	1627	13579
1507	1607	13583
1483	1740	13588
1468	1799	13592
1466	1627	13597
1450	1443	13602
1481	1438	13606
1522	1548	13612
1594	1498	13617
1585	1669	13621
1552	1867	13626
1527	1700	13630
1487	1525	13635
1457	1522	13640
1446	1481	13644
1468	1419	13649
1490	1442	13655
1514	1747	13659
1535	1717	13664
1551	1481	13668
1535	1374	13673
1541	1397	13678
1601	1447	13682
1579	1564	13687
1522	1683	13692
1540	1822	13697
1542	1736	13702
1524	1496	13706
1481	1408	13711
1488	1512	13716
1461	1573	13720
1448	1388	13725
1481	1345	13730
1513	1394	13734
1548	1637	13740
1546	1623	13745
1547	1467	13749
1522	1700	13754
1503	1790	13758
1535	1583	13763
1513	1480	13768
1525	1507	13772
1555	1560	13777
1550	1699	13783
1522	1503	13787
1488	1437	13792
1424	1568	13796
1387	1642	13801
1427	1628	13806
1435	1635	13810
1434	1581	13815
1440	1591	13820
1543	1534	13825
1629	1585	13830
1541	1579	13834
1478	1565	13839
1491	1439	13844
1499	1346	13848
1465	1333	13853
1446	1423	13858
1465	1481	13862
1487	1578	13868
1492	1565	13873
1527	1486	13877
1601	1659	13882
1660	1729	13886
1629	1766	13891
1532	1934	13896
1424	1755	13900
1405	1527	13905
1391	1619	13911
1402	1629	13915
1438	1471	13920
1460	1423	13924
1463	1391	13929
1484	1377	13934
1617	1403	13938
1692	1593	13943
1754	1826	13948
1751	1717	13953
1774	1622	13958
1792	1749	13962
1701	1717	13967
1586	1695	13972
1503	1585	13976
1446	1473	13981
1454	1462	13986
1428	1499	13990
1426	1502	13996
1445	1541	14001
1481	1657	14005
1524	1579	14010
1610	1653	14014
1655	1919	14019
1610	1924	14024
1542	1590	14028
1512	1474	14033
1481	1415	14039
1418	1404	14043
1424	1432	14048
1453	1552	14052
1441	1703	14057
1454	1613	14062
1442	1493	14066
1393	1447	14071
1335	1405	14076
1379	1539	14081
1456	1781	14086
1516	1670	14091
1566	1609	14095
1476	1552	14100
1468	1465	14104
1504	1495	14109
1558	1590	14114
1497	1422	14118
1363	1374	14124
1332	1522	14129
1425	1619	14133
1483	1502	14138
1516	1489	14142
1542	1390	14147
1549	1370	14152
1509	1412	14156
1451	1454	14161
1360	1564	14167
1398	1628	14171
1428	1552	14176
1399	1441	14180
1397	1394	14185
1401	1507	14190
1464	1439	14194
1530	1325	14199
1566	1340	14204
1594	1399	14209
1555	1385	14214
1542	1381	14218
1540	1417	14223
1430	1443	14228
1373	1365	14232
1369	1441	14237
1365	1383	14242
1371	1389	14246
1383	1346	14252
1504	1318	14257
1571	1327	14261
1569	1442	14266
1511	1544	14270
1471	1561	14275
1518	1489	14280
1540	1506	14284
1596	1577	14289
1562	1703	14295
1460	1541	14299
1485	1319	14304
1497	1225	14308
1476	1286	14313
1489	1523	14318
1545	1545	14322
1567	1391	14327
1564	1308	14332
1586	1306	14337
1592	1355	14342
1539	1371	14346
1455	1326	14351
1414	1262	14356
1472	1394	14360
1517	1450	14365
1507	1382	14370
1516	1327	14374
1525	1413	14380
1535	1357	14385
1511	1383	14389
1508	1358	14394
1521	1334	14398
1544	1465	14403
1541	1497	14408
1451	1436	14412
1456	1339	14417
1445	1287	14423
1400	1328	14427
1435	1422	14432
1487	1275	14436
1519	1240	14441
1536	1323	14446
1555	1445	14450
1532	1360	14455
1544	1378	14460
1531	1480	14465
1494	1530	14470
1497	1362	14474
1462	1332	14479
1473	1444	14484
1490	1312	14488
1510	1223	14493
1531	1247	14498
1530	1375	14502
1513	1392	14508
1518	1386	14513
1538	1338	14517
1532	1291	14522
1540	1261	14526
1541	1166	14531
1539	1137	14536
1534	1197	14540
1468	1333	14545
1434	1255	14551
1461	1310	14555
1512	1364	14560
1525	1333	14564
1545	1267	14569
1625	1316	14574
1625	1219	14578
1570	1190	14583
1574	1187	14588
1751	1153	14593
1888	1209	14598
1767	1386	14602
1632	1320	14607
1534	1215	14612
1481	1258	14616
1427	1274	14621
1412	1304	14626
1409	1271	14630
1417	1199	14636
1469	1190	14641
1544	1165	14645
1660	1173	14650
1662	1208	14654
1573	1260	14659
1481	1274	14664
1420	1306	14668
1352	1400	14673
1392	1342	14679
1438	1285	14683
1435	1210	14688
1436	1234	14692
1536	1355	14697
1556	1337	14702
1555	1286	14706
1501	1310	14711
1480	1317	14716
1477	1397	14721
1474	1354	14726
1452	1304	14730
1406	1282	14735
1379	1261	14740
1371	1297	14744
1398	1395	14749
1502	1362	14754
1514	1362	14758
1526	1318	14764
1485	1327	14769
1418	1355	14773
1369	1369	14778
1387	1393	14782
1364	1389	14787
1369	1343	14792
1422	1412	14796
1466	1508	14801
1502	1433	14807
1579	1306	14811
1521	1295	14816
1511	1295	14820
1490	1309	14825
1453	1477	14830
1405	1486	14834
1365	1429	14839
1343	1368	14844
1421	1366	14849
1468	1398	14854
1507	1456	14858
1571	1588	14863
1567	1499	14868
1585	1478	14872
1555	1495	14877
1519	1553	14882
1574	1700	14886
1523	1543	14892
1478	1501	14897
1384	1437	14901
1371	1450	14906
1453	1594	14910
1524	1441	14915
1524	1400	14920
1508	1391	14924
1491	1400	14929
1464	1420	14935
1474	1519	14939
1567	1533	14944
1603	1479	14948
1582	1479	14953
1554	1530	14958
1494	1526	14962
1471	1553	14967
1504	1599	14972
1536	1596	14977
1570	1634	14982
1550	1576	14987
1506	1604	14991
1490	1568	14996
1485	1512	15000
1498	1432	15005
1499	1411	15010
1477	1435	15014
1425	1497	15020
1422	1540	15025
1461	1592	15029
1497	1628	15034
1498	1561	15038
1499	1496	15043
1488	1491	15048
1446	1508	15052
1499	1517	15057
1565	1605	15063
1532	1615	15067
1481	1557	15072
1481	1448	15076
1435	1443	15081
1375	1462	15086
1418	1406	15090
1488	1398	15095
1511	1416	15100
1503	1454	15105
1485	1480	15110
1511	1531	15115
1535	1597	15119
1535	1627	15124
1511	1555	15128
1468	1514	15133
1434	1472	15138
1461	1483	15142
1474	1555	15148
1428	1544	15153
1467	1492	15157
1566	1487	15162
1609	1533	15166
1634	1626	15171
1644	1626	15176
1604	1506	15180
1574	1449	15185
1555	1444	15191
1537	1422	15195
1539	1441	15200
1548	1455	15204
1579	1535	15209
1578	1520	15214
1542	1516	15218
1524	1533	15223
1518	1581	15228
1444	1691	15233
1429	1618	15238
1479	1594	15243
1505	1542	15247
1510	1490	15252
1472	1422	15256
1405	1510	15261
1407	1533	15266
1453	1442	15270
1467	1410	15276
1465	1412	15281
1462	1468	15285
1451	1618	15290
1447	1549	15294
1443	1565	15299
1450	1405	15304
1444	1386	15308
1438	1367	15313
1418	1345	15319
1417	1357	15323
1397	1445	15328
1406	1467	15332
1381	1454	15337
1384	1460	15342
1409	1609	15346
1448	1505	15351
1462	1453	15356
1416	1477	15361
1418	1418	15366
1475	1396	15371
1488	1450	15375
1478	1474	15380
1453	1477	15384
1418	1499	15389
1398	1482	15394
1406	1507	15398
1431	1522	15404
1447	1469	15409
1454	1475	15413
1460	1488	15418
1438	1519	15422
1423	1493	15427
1431	1475	15432
1439	1497	15436
1464	1554	15441
1513	1532	15447
1498	1545	15451
1501	1605	15456
1510	1548	15460
1511	1564	15465
1503	1554	15470
1484	1531	15474
1451	1535	15479
1459	1531	15484
1513	1513	15489
1562	1522	15494
1575	1560	15498
1563	1584	15503
1538	1601	15508
1510	1635	15512
1489	1577	15517
1475	1551	15522
1474	1551	15526
1493	1567	15532
1498	1604	15537
1524	1637	15541
1542	1574	15546
1541	1545	15550
1539	1535	15555
1542	1630	15560
1543	1665	15564
1536	1602	15569
1527	1505	15575
1524	1472	15579
1519	1472	15584
1534	1508	15588
1531	1530	15593
1516	1542	15598
1515	1570	15602
1493	1552	15607
1489	1539	15612
1490	1593	15617
1480	1599	15622
1473	1608	15626
1480	1558	15631
1490	1544	15636
1502	1507	15640
1521	1520	15645
1528	1528	15650
1522	1509	15654
1517	1498	15660
1524	1503	15665
1516	1529	15669
1512	1571	15674
1509	1549	15678
1499	1560	15683
1502	1592	15688
1504	1587	15692
1495	1546	15697
1493	1526	15703
1483	1564	15707
1465	1559	15712
1477	1573	15716
1517	1533	15721
1538	1514	15726
1548	1491	15730
1573	1533	15735
1615	1557	15740
1621	1486	15745
1615	1455	15750
1606	1455	15754
1598	1484	15759
1586	1502	15764
1573	1533	15768
1553	1549	15773
1541	1600	15778
1526	1538	15782
1504	1516	15788
1500	1554	15793
1503	1528	15797
1503	1519	15802
1497	1530	15806
1497	1583	15811
1499	1606	15816
1500	1561	15820
1504	1529	15825
1487	1493	15831
1466	1554	15835
1456	1581	15840
1455	1557	15844
1450	1450	15849
1440	1397	15854
1438	1381	15858
1436	1391	15863
1430	1413	15868
1429	1446	15873
1431	1511	15878
1436	1547	15882
1433	1494	15887
1432	1475	15892
1429	1473	15896
1431	1483	15901
1423	1507	15906
1426	1551	15910
1422	1562	15916
1419	1560	15921
1427	1549	15925
1426	1553	15930
1426	1586	15934
1423	1660	15939
1421	1611	15944
1422	1524	15948
1423	1452	15953
1425	1423	15959
1423	1419	15963
1421	1434	15968
1417	1461	15972
1416	1499	15977
1421	1517	15982
1419	1511	15986
1422	1513	15991
1425	1524	15996
1427	1544	16001
1433	1631	16006
1439	1626	16010
1438	1546	16015
1439	1503	16020
1447	1479	16024
1457	1479	16029
1464	1489	16034
1463	1512	16038
1454	1554	16044
1449	1554	16049
1444	1543	16053
1439	1570	16058
1425	1564	16062
1434	1553	16067
1449	1544	16072
1459	1534	16076
1462	1536	16081
1460	1542	16087
1462	1563	16091
1470	1570	16096
1471	1579	16100
1475	1557	16105
1473	1520	16110
1472	1506	16114
1465	1519	16119
1469	1496	16124
1474	1485	16129
1480	1483	16134
1476	1495	16138
1468	1507	16143
1457	1523	16148
1448	1547	16152
1443	1591	16157
1437	1577	16162
1415	1576	16166
1410	1536	16172
1420	1502	16176
1438	1493	16181
1456	1503	16186
1474	1530	16190
1480	1522	16195
1476	1503	16200
1473	1499	16204
1472	1497	16209
1478	1496	16215
1473	1501	16219
1462	1524	16224
1452	1536	16228
1442	1549	16233
1452	1571	16238
1465	1581	16242
1471	1522	16247
1470	1515	16252
1474	1509	16257
1472	1492	16262
1462	1467	16266
1467	1450	16271
1478	1446	16276
1486	1468	16280
1491	1465	16285
1503	1451	16290
1517	1475	16294
1526	1484	16300
1535	1475	16304
1534	1488	16309
1528	1474	16314
1522	1430	16318
1516	1434	16323
1514	1410	16328
1519	1391	16332
1511	1394	16337
1495	1417	16343
1483	1447	16347
1471	1431	16352
1461	1430	16356
1456	1457	16361
1451	1457	16366
1442	1476	16370
1432	1537	16375
1427	1522	16380
1431	1537	16385
1433	1448	16390
1432	1383	16394
1434	1352	16399
1454	1352	16404
1469	1370	16408
1463	1378	16413
1447	1397	16418
1427	1419	16422
1417	1408	16428
1411	1405	16432
1406	1416	16437
1408	1436	16442
1407	1494	16446
1405	1502	16451
1415	1505	16456
1418	1508	16460
1427	1465	16465
1433	1410	16471
1435	1391	16475
1439	1393	16480
1456	1421	16484
1463	1446	16489
1458	1459	16494
1449	1466	16498
1438	1476	16503
1428	1487	16508
1425	1521	16513
1430	1500	16518
1434	1524	16522
1439	1480	16527
1442	1448	16532
1442	1420	16536
1441	1427	16541
1446	1424	16546
1448	1449	16550
1452	1450	16556
1455	1422	16560
1462	1434	16565
1473	1449	16570
1485	1427	16574
1495	1418	16579
1501	1394	16584
1495	1390	16588
1476	1403	16593
1464	1395	16599
1464	1425	16603
1464	1381	16608
1459	1372	16612
1456	1373	16617
1458	1399	16622
1460	1417	16626
1463	1460	16631
1466	1442	16636
1475	1435	16641
1485	1434	16646
1500	1471	16650
1502	1486	16655
1498	1444	16660
1500	1425	16664
1495	1437	16669
1486	1448	16674
1484	1443	16678
