1484	1522	4
1489	1513	9
1492	1508	13
1491	1484	18
1483	1493	22
1478	1503	27
1479	1484	31
1482	1486	36
1490	1550	40
1491	1569	45
1477	1548	50
1471	1529	54
1473	1504	59
1476	1475	63
1477	1514	68
1476	1503	72
1473	1485	77
1474	1506	81
1472	1508	87
1470	1514	91
1473	1520	96
1478	1545	100
1473	1554	105
1477	1590	109
1491	1596	114
1495	1574	118
1496	1553	123
1495	1530	128
1496	1507	133
1496	1466	137
1498	1450	142
1503	1464	147
1506	1487	151
1502	1516	156
1499	1525	160
1507	1519	165
1510	1489	169
1510	1481	175
1507	1494	179
1509	1494	184
1505	1471	188
1501	1442	193
1497	1442	197
1504	1430	202
1536	1435	206
1575	1453	211
1600	1453	216
1616	1454	221
1627	1473	225
1627	1523	230
1624	1535	235
1615	1517	239
1597	1490	244
1583	1480	248
1571	1492	253
1548	1512	258
1525	1545	263
1520	1568	267
1519	1533	272
1512	1527	276
1499	1518	281
1490	1519	285
1461	1514	290
1432	1511	294
1451	1502	300
1470	1510	304
1467	1533	309
1450	1552	314
1434	1519	318
1424	1512	323
1413	1515	327
1430	1531	332
1443	1524	336
1452	1524	342
1458	1513	346
1461	1511	351
1456	1516	355
1437	1543	360
1441	1560	364
1450	1550	369
1452	1554	373
1451	1552	378
1436	1521	382
1425	1508	388
1428	1514	393
1421	1506	397
1419	1482	402
1420	1497	406
1416	1488	411
1421	1503	415
1422	1516	420
1418	1518	424
1419	1485	430
1419	1467	434
1424	1444	439
1435	1437	443
1442	1441	448
1440	1461	452
1436	1482	457
1441	1477	461
1447	1482	466
1453	1499	472
1455	1454	476
1458	1440	481
1467	1451	485
1466	1455	490
1471	1443	494
1479	1429	499
1485	1431	503
1484	1490	508
1490	1496	513
1498	1459	518
1496	1435	522
1491	1413	527
1506	1403	531
1515	1418	536
1516	1436	540
1513	1445	545
1513	1446	550
1516	1454	555
1520	1475	560
1524	1518	564
1523	1522	569
1517	1507	573
1516	1502	578
1525	1521	582
1524	1563	587
1514	1561	591
1515	1531	596
1516	1471	601
1512	1444	606
1511	1441	610
1500	1475	615
1491	1499	619
1489	1475	624
1501	1470	629
1512	1462	633
1521	1442	638
1525	1498	643
1527	1475	648
1524	1435	652
1522	1394	657
1517	1381	661
1514	1380	666
1505	1399	670
1499	1425	675
1490	1432	679
1499	1420	685
1505	1424	689
1511	1451	694
1514	1485	698
1511	1529	703
1511	1479	708
1511	1460	712
1508	1455	717
1508	1467	721
1503	1524	727
1498	1498	731
1497	1487	736
1513	1476	740
1528	1485	745
1532	1498	749
1527	1491	754
1524	1473	758
1528	1469	763
1523	1464	768
1516	1467	773
1514	1507	777
1517	1532	782
1519	1500	787
1518	1481	791
1510	1481	796
1521	1489	800
1546	1518	805
1569	1499	809
1589	1488	815
1609	1500	819
1623	1503	824
1614	1496	828
1613	1457	833
1613	1437	837
1605	1439	842
1594	1444	846
1575	1424	851
1560	1422	856
1546	1437	861
1541	1464	866
1535	1488	870
1526	1478	875
1513	1475	879
1493	1513	884
1482	1524	888
1483	1472	893
1484	1443	898
1480	1437	903
1468	1440	907
1456	1467	912
1447	1467	916
1438	1474	921
1441	1500	925
1452	1502	930
1451	1485	934
1451	1533	940
1431	1505	945
1434	1488	949
1445	1479	954
1446	1498	958
1438	1545	963
1440	1504	967
1436	1504	972
1424	1473	976
1410	1456	982
1420	1462	986
1434	1505	991
1434	1493	995
1435	1485	1000
1442	1456	1004
1445	1446	1009
1440	1457	1014
1430	1484	1018
1416	1487	1024
1414	1483	1028
1425	1507	1033
1432	1485	1038
1434	1476	1042
1431	1497	1047
1419	1506	1051
1407	1544	1056
1424	1531	1060
1449	1506	1065
1462	1490	1071
1469	1495	1075
1472	1492	1080
1476	1494	1084
1472	1482	1089
1458	1475	1093
1464	1470	1098
1481	1481	1103
1498	1474	1107
1504	1473	1113
1510	1477	1117
1515	1494	1122
1512	1523	1127
1507	1514	1131
1506	1514	1136
1505	1532	1140
1508	1575	1145
1508	1556	1149
1507	1525	1155
1511	1507	1160
1507	1500	1164
1497	1519	1169
1501	1521	1173
1506	1525	1178
1510	1527	1182
1518	1522	1187
1519	1537	1192
1521	1527	1197
1520	1523	1202
1510	1496	1206
1500	1491	1211
1485	1552	1216
1483	1481	1220
1488	1440	1225
1492	1413	1229
1489	1403	1234
1475	1448	1239
1464	1463	1244
1480	1432	1249
1492	1415	1253
1489	1413	1258
1487	1417	1262
1490	1438	1267
1490	1454	1271
1486	1459	1276
1482	1469	1282
1470	1504	1286
1461	1537	1291
1465	1508	1295
1477	1483	1300
1487	1475	1305
1493	1487	1309
1480	1538	1314
1466	1509	1318
1472	1490	1324
1481	1466	1328
1497	1479	1333
1491	1569	1338
1482	1502	1342
1485	1446	1347
1494	1420	1351
1498	1423	1356
1493	1457	1360
1491	1493	1366
1496	1429	1371
1502	1370	1375
1500	1345	1380
1497	1339	1384
1477	1376	1389
1473	1386	1394
1498	1367	1398
1505	1369	1403
1490	1395	1408
1500	1498	1413
1532	1467	1417
1578	1401	1422
1612	1370	1427
1614	1363	1431
1603	1377	1436
1588	1397	1440
1580	1415	1445
1593	1429	1451
1586	1446	1455
1556	1482	1460
1535	1503	1464
1503	1461	1469
1481	1444	1473
1479	1448	1478
1471	1450	1483
1476	1434	1487
1465	1463	1492
1466	1451	1497
1478	1389	1502
1476	1354	1506
1470	1353	1511
1459	1376	1516
1451	1351	1520
1444	1365	1525
1421	1361	1529
1411	1371	1534
1409	1411	1540
1409	1494	1544
1403	1467	1549
1420	1396	1553
1430	1365	1558
1415	1372	1562
1393	1449	1567
1395	1398	1572
1427	1373	1576
1454	1353	1582
1454	1363	1586
1430	1391	1591
1408	1420	1595
1424	1418	1600
1432	1405	1605
1406	1409	1609
1390	1427	1614
1399	1450	1618
1419	1429	1624
1426	1382	1629
1418	1373	1633
1403	1380	1638
1397	1461	1642
1398	1475	1647
1413	1423	1651
1409	1397	1656
1411	1385	1661
1396	1441	1666
1409	1498	1671
1455	1473	1675
1475	1436	1680
1470	1407	1684
1473	1422	1689
1488	1446	1694
1498	1495	1698
1510	1465	1703
1505	1421	1708
1506	1410	1713
1513	1455	1718
1506	1501	1722
1501	1494	1727
1521	1420	1731
1528	1403	1736
1486	1407	1740
1471	1463	1745
1499	1497	1751
1507	1454	1755
1510	1444	1760
1529	1435	1764
1552	1498	1769
1545	1535	1773
1531	1507	1778
1530	1469	1783
1522	1454	1787
1529	1515	1793
1540	1524	1797
1528	1483	1802
1540	1434	1807
1543	1410	1811
1540	1471	1816
1517	1599	1820
1512	1491	1825
1531	1406	1829
1525	1383	1835
1534	1392	1840
1534	1432	1844
1536	1465	1849
1519	1460	1853
1497	1441	1858
1495	1453	1862
1485	1551	1867
1505	1598	1872
1535	1504	1876
1546	1470	1882
1521	1463	1886
1482	1543	1891
1471	1580	1896
1471	1559	1900
1482	1488	1905
1510	1451	1909
1528	1483	1914
1529	1595	1918
1531	1601	1924
1499	1547	1929
1496	1464	1933
1485	1457	1938
1492	1519	1942
1525	1505	1947
1556	1464	1951
1553	1440	1956
1506	1471	1961
1479	1571	1966
1510	1500	1971
1531	1470	1975
1535	1457	1980
1554	1495	1985
1558	1538	1989
1542	1546	1994
1506	1529	1998
1499	1519	2003
1490	1523	2008
1496	1648	2013
1517	1675	2018
1545	1618	2022
1559	1527	2027
1551	1488	2031
1587	1514	2036
1641	1621	2040
1664	1624	2045
1667	1525	2051
1622	1488	2055
1586	1477	2060
1594	1474	2064
1603	1498	2069
1589	1568	2074
1540	1554	2078
1478	1527	2083
1459	1551	2087
1496	1564	2093
1499	1547	2097
1498	1535	2102
1474	1502	2107
1485	1499	2111
1498	1548	2116
1514	1584	2120
1515	1592	2125
1505	1551	2129
1480	1540	2135
1442	1622	2140
1427	1662	2144
1426	1644	2149
1429	1579	2153
1442	1538	2158
1429	1505	2163
1420	1518	2167
1422	1516	2172
1460	1520	2177
1472	1509	2182
1447	1516	2186
1424	1532	2191
1423	1583	2196
1417	1626	2200
1406	1587	2205
1392	1539	2209
1403	1482	2214
1417	1503	2219
1472	1593	2224
1501	1550	2229
1487	1476	2233
1470	1450	2238
1423	1455	2242
1397	1511	2247
1409	1571	2252
1412	1552	2256
1401	1532	2262
1410	1552	2266
1425	1655	2271
1424	1628	2275
1380	1628	2280
1395	1507	2285
1443	1435	2289
1473	1410	2294
1482	1416	2298
1484	1503	2304
1503	1577	2309
1516	1491	2313
1521	1459	2318
1479	1519	2322
1481	1674	2327
1501	1575	2331
1521	1497	2336
1504	1472	2341
1485	1539	2345
1496	1508	2351
1543	1453	2355
1563	1433	2360
1548	1441	2364
1501	1481	2369
1466	1624	2374
1467	1586	2378
1509	1520	2383
1524	1506	2387
1537	1599	2393
1580	1665	2398
1593	1631	2402
1589	1525	2407
1583	1468	2411
1570	1456	2416
1558	1544	2420
1545	1588	2425
1504	1528	2430
1460	1498	2435
1429	1512	2440
1434	1620	2444
1436	1596	2449
1474	1529	2453
1515	1494	2458
1540	1495	2463
1542	1533	2467
1532	1569	2472
1541	1599	2477
1554	1578	2482
1561	1551	2487
1549	1621	2491
1507	1660	2496
1501	1590	2500
1506	1549	2505
1487	1493	2509
1476	1494	2514
1479	1604	2520
1486	1525	2524
1530	1475	2529
1520	1445	2533
1509	1444	2538
1505	1529	2542
1531	1586	2547
1530	1495	2552
1481	1448	2556
1470	1442	2562
1487	1482	2566
1496	1542	2571
1532	1517	2576
1540	1498	2580
1535	1485	2585
1535	1502	2589
1533	1588	2594
1525	1615	2598
1526	1604	2604
1518	1541	2609
1483	1525	2613
1464	1609	2618
1488	1711	2622
1530	1573	2627
1572	1469	2632
1601	1434	2636
1586	1493	2641
1596	1608	2646
1651	1487	2651
1656	1437	2655
1644	1422	2660
1626	1422	2665
1589	1467	2669
1537	1575	2674
1538	1535	2678
1548	1532	2683
1545	1496	2688
1516	1575	2693
1497	1691	2698
1495	1537	2702
1501	1463	2707
1486	1432	2711
1475	1445	2716
1448	1527	2721
1466	1615	2725
1506	1512	2731
1515	1467	2735
1478	1499	2740
1399	1598	2744
1404	1578	2749
1463	1577	2754
1476	1512	2758
1473	1507	2763
1467	1577	2767
1462	1576	2772
1406	1502	2777
1375	1454	2782
1407	1435	2787
1444	1443	2791
1449	1562	2796
1440	1678	2800
1440	1641	2805
1458	1555	2810
1461	1456	2814
1469	1423	2820
1440	1426	2824
1422	1543	2829
1445	1672	2833
1456	1525	2838
1446	1470	2843
1434	1458	2847
1424	1467	2852
1449	1497	2856
1475	1492	2862
1461	1469	2866
1470	1478	2871
1446	1549	2876
1428	1645	2880
1456	1555	2885
1466	1536	2889
1483	1551	2894
1459	1646	2899
1466	1617	2904
1478	1580	2909
1496	1530	2913
1485	1614	2918
1479	1698	2922
1494	1605	2927
1508	1508	2932
1514	1441	2936
1511	1450	2941
1513	1554	2946
1542	1602	2951
1553	1505	2955
1531	1435	2960
1490	1426	2965
1450	1475	2969
1466	1571	2974
1522	1533	2978
1543	1473	2983
1545	1461	2989
1551	1468	2993
1549	1527	2998
1554	1634	3002
1552	1604	3007
1549	1529	3011
1520	1508	3016
1472	1555	3021
1465	1637	3025
1478	1580	3031
1525	1549	3035
1522	1618	3040
1497	1667	3044
1484	1645	3049
1506	1525	3054
1545	1471	3058
1550	1442	3063
1518	1498	3067
1507	1656	3073
1505	1577	3078
1503	1522	3082
1502	1448	3087
1478	1439	3091
1451	1562	3096
1454	1609	3100
1515	1496	3105
1552	1432	3110
1563	1413	3115
1536	1427	3120
1523	1497	3124
1510	1543	3129
1524	1487	3134
1529	1479	3138
1507	1489	3143
1475	1609	3147
1492	1741	3152
1520	1608	3156
1507	1514	3162
1511	1464	3167
1537	1480	3171
1544	1639	3176
1498	1590	3180
1463	1490	3185
1482	1458	3189
1516	1437	3194
1552	1457	3200
1555	1538	3204
1509	1606	3209
1491	1510	3213
1523	1455	3218
1534	1431	3223
1490	1455	3227
1490	1529	3232
1532	1567	3236
1572	1472	3241
1608	1443	3246
1605	1453	3251
1586	1584	3256
1581	1654	3260
1630	1528	3265
1650	1481	3269
1648	1473	3274
1612	1561	3278
1556	1657	3283
1516	1577	3289
1527	1510	3293
1539	1454	3298
1521	1445	3302
1511	1584	3307
1508	1637	3312
1501	1503	3316
1500	1450	3321
1465	1441	3325
1441	1548	3331
1442	1703	3335
1457	1550	3340
1480	1477	3345
1487	1432	3349
1474	1453	3354
1445	1591	3358
1403	1638	3363
1432	1538	3367
1476	1449	3373
1461	1425	3378
1462	1440	3382
1467	1519	3387
1427	1570	3391
1402	1576	3396
1435	1549	3401
1468	1520	3405
1483	1588	3410
1486	1686	3415
1451	1676	3420
1438	1655	3424
1419	1561	3429
1430	1502	3434
1457	1510	3438
1479	1615	3443
1450	1642	3447
1426	1574	3452
1441	1502	3457
1464	1481	3462
1473	1563	3467
1455	1704	3471
1460	1640	3476
1472	1557	3480
1464	1504	3485
1448	1527	3490
1456	1572	3494
1485	1540	3500
1484	1586	3504
1466	1550	3509
1471	1500	3513
1482	1538	3518
1478	1656	3523
1502	1584	3527
1506	1546	3532
1510	1541	3536
1518	1520	3542
1516	1531	3547
1509	1625	3551
1489	1641	3556
1462	1590	3560
1485	1563	3565
1530	1544	3569
1552	1606	3574
1546	1750	3579
1538	1703	3584
1524	1598	3589
1514	1541	3593
1512	1487	3598
1523	1515	3602
1508	1575	3607
1519	1531	3612
1528	1499	3616
1525	1507	3621
1536	1544	3625
1538	1608	3631
1511	1757	3636
1502	1674	3640
1521	1547	3645
1512	1486	3649
1509	1497	3654
1499	1529	3658
1518	1564	3663
1540	1514	3668
1542	1493	3673
1529	1497	3678
1529	1533	3682
1507	1612	3687
1527	1627	3691
1556	1576	3696
1520	1641	3701
1486	1626	3705
1462	1637	3710
1466	1624	3715
1470	1605	3720
1484	1534	3725
1511	1478	3729
1523	1469	3734
1520	1499	3738
1518	1587	3743
1511	1596	3747
1518	1546	3752
1535	1531	3758
1538	1591	3762
1497	1657	3767
1474	1642	3771
1496	1594	3776
1520	1576	3781
1535	1489	3785
1524	1470	3790
1514	1472	3794
1493	1488	3800
1499	1513	3804
1517	1534	3809
1532	1544	3814
1535	1752	3818
1520	1812	3823
1459	1611	3827
1435	1513	3832
1494	1453	3836
1555	1453	3842
1594	1530	3847
1624	1582	3851
1637	1541	3856
1634	1475	3860
1626	1454	3865
1621	1551	3870
1629	1715	3874
1615	1607	3879
1611	1545	3884
1569	1524	3889
1544	1516	3893
1496	1493	3898
1489	1500	3903
1517	1467	3907
1514	1425	3912
1513	1439	3916
1473	1600	3921
1454	1693	3926
1454	1573	3931
1452	1492	3936
1434	1500	3940
1432	1553	3945
1443	1511	3949
1435	1540	3954
1425	1559	3959
1452	1434	3963
1471	1388	3969
1472	1380	3973
1452	1407	3978
1428	1461	3982
1413	1492	3987
1421	1512	3992
1432	1602	3996
1409	1735	4001
1380	1798	4005
1396	1751	4011
1448	1557	4016
1469	1513	4020
1422	1629	4025
1447	1800	4029
1483	1623	4034
1487	1484	4038
1452	1444	4043
1411	1392	4048
1402	1420	4052
1430	1469	4058
1466	1454	4062
1476	1506	4067
1483	1712	4071
1445	1778	4076
1433	1693	4081
1483	1584	4085
1527	1448	4090
1541	1410	4094
1528	1595	4100
1510	1735	4105
1480	1644	4109
1429	1514	4114
1412	1464	4118
1451	1581	4123
1528	1708	4127
1559	1580	4132
1516	1460	4137
1436	1539	4142
1430	1477	4147
1466	1444	4151
1474	1475	4156
1467	1527	4160
1453	1662	4165
1465	1539	4170
1500	1407	4174
1511	1452	4179
1533	1524	4184
1523	1629	4189
1438	1558	4194
1443	1467	4198
1486	1399	4203
1484	1459	4207
1482	1444	4212
1476	1444	4216
1492	1523	4221
1527	1538	4227
1546	1503	4231
1532	1534	4236
1504	1600	4240
1462	1571	4245
1421	1584	4250
1484	1598	4254
1543	1537	4259
1574	1533	4263
1542	1544	4269
1488	1555	4273
1488	1486	4278
1511	1428	4283
1494	1451	4287
1497	1573	4292
1513	1606	4296
1503	1539	4301
1474	1505	4305
1451	1565	4311
1474	1682	4316
1463	1710	4320
1488	1557	4325
1502	1562	4329
1503	1552	4334
1508	1434	4339
1530	1453	4343
1542	1464	4348
1517	1531	4353
1464	1463	4358
1476	1446	4362
1491	1514	4367
1489	1583	4372
1517	1545	4376
1549	1459	4381
1565	1463	4385
1566	1587	4390
1550	1528	4395
1499	1438	4400
1486	1399	4405
1518	1412	4409
1527	1536	4414
1489	1488	4418
1478	1506	4423
1478	1517	4428
1467	1519	4432
1498	1555	4438
1536	1530	4442
1489	1510	4447
1451	1578	4451
1483	1659	4456
1519	1595	4461
1527	1516	4465
1589	1547	4470
1616	1558	4474
1609	1598	4480
1599	1543	4485
1592	1477	4489
1630	1466	4494
1674	1443	4498
1661	1501	4503
1587	1513	4507
1487	1464	4512
1447	1424	4517
1455	1379	4521
1497	1376	4527
1525	1443	4531
1520	1426	4536
1492	1409	4540
1490	1433	4545
1487	1407	4550
1454	1330	4554
1401	1303	4559
1378	1401	4563
1388	1431	4569
1398	1310	4574
1411	1224	4578
1414	1190	4583
1437	1204	4587
1440	1312	4592
1413	1324	4596
1399	1181	4601
1381	1126	4606
1379	1096	4611
1369	1174	4616
1360	1223	4620
1365	1164	4625
1334	1101	4629
1315	1060	4634
1324	1086	4639
1388	1166	4643
1412	1241	4648
1497	1193	4653
1515	1099	4658
1439	1061	4663
1381	1053	4667
1439	1079	4672
1456	1127	4676
1412	1187	4681
1361	1116	4685
1324	1099	4690
1345	1085	4696
1413	1097	4700
1428	1173	4705
1434	1324	4709
1440	1123	4714
1460	1072	4719
1523	1092	4723
1546	1182	4728
1488	1220	4732
1419	1133	4738
1376	1042	4742
1395	1028	4747
1402	1038	4752
1407	1047	4756
1419	1089	4761
1440	1107	4765
1494	1161	4770
1564	1206	4774
1562	1206	4780
1537	1155	4785
1507	1110	4789
1480	1099	4794
1531	1145	4798
1590	1215	4803
1589	1181	4808
1546	1160	4812
1491	1141	4817
1480	1156	4822
1504	1194	4827
1493	1207	4831
1479	1171	4836
1484	1175	4841
1492	1196	4845
1488	1239	4850
1502	1447	4854
1506	1296	4859
1563	1240	4864
1620	1239	4869
1572	1233	4874
1562	1261	4878
1537	1313	4883
1480	1346	4887
1430	1271	4892
1414	1247	4897
1424	1234	4901
1440	1296	4907
1446	1282	4911
1444	1279	4916
1455	1282	4920
1510	1296	4925
1534	1337	4930
1494	1517	4934
1466	1389	4939
1440	1370	4943
1441	1309	4948
1433	1285	4954
1474	1321	4958
1469	1338	4963
1460	1345	4967
1473	1364	4972
1487	1405	4976
1517	1434	4981
1568	1457	4986
1539	1477	4990
1454	1461	4996
1434	1437	5000
1442	1438	5005
1444	1478	5009
1446	1523	5014
1454	1513	5019
1495	1446	5023
1532	1472	5028
1527	1460	5032
1508	1433	5038
1472	1408	5043
1464	1395	5047
1500	1400	5052
1502	1414	5056
1516	1386	5061
1517	1389	5065
1571	1451	5070
1649	1510	5075
1647	1447	5080
1612	1383	5085
1619	1336	5089
1604	1335	5094
1570	1380	5098
1520	1424	5103
1524	1391	5108
1545	1351	5112
1522	1345	5117
1497	1357	5122
1468	1456	5127
1440	1420	5132
1435	1389	5136
1435	1374	5141
1431	1374	5145
1427	1453	5150
1442	1527	5154
1434	1448	5159
1428	1380	5165
1448	1354	5169
1447	1353	5174
1453	1388	5178
1444	1416	5183
1413	1418	5187
1393	1490	5192
1405	1466	5197
1404	1420	5201
1382	1425	5207
1353	1449	5211
1333	1440	5216
1349	1436	5221
1398	1448	5225
1431	1482	5230
1458	1536	5234
1433	1505	5239
1380	1556	5243
1374	1451	5249
1371	1394	5254
1348	1393	5258
1355	1430	5263
1375	1481	5267
1368	1407	5272
1359	1354	5276
1362	1341	5281
1358	1354	5286
1387	1379	5291
1397	1432	5296
1400	1448	5300
1376	1450	5305
1396	1451	5310
1418	1508	5314
1419	1541	5319
1422	1505	5323
1424	1482	5328
1429	1486	5332
1443	1495	5338
1444	1504	5343
1471	1485	5347
1485	1416	5352
1485	1392	5356
1460	1394	5361
1474	1437	5365
1484	1502	5370
1489	1488	5376
1479	1504	5380
1463	1478	5385
1460	1423	5389
1455	1463	5394
1488	1457	5399
1526	1415	5403
1516	1385	5408
1489	1372	5412
1478	1386	5417
1507	1459	5422
1544	1572	5427
1548	1478	5432
1523	1430	5436
1490	1471	5441
1465	1472	5445
1435	1561	5450
1433	1439	5454
1482	1375	5459
1496	1377	5465
1514	1390	5469
1558	1369	5474
1554	1381	5478
1526	1408	5483
1507	1438	5488
1497	1497	5492
1491	1599	5497
1497	1535	5501
1504	1514	5507
1471	1500	5511
1444	1520	5516
1475	1547	5521
1483	1531	5525
1477	1519	5530
1469	1504	5534
1468	1607	5539
1488	1670	5543
1506	1531	5549
1502	1456	5554
1492	1427	5558
1484	1494	5563
1500	1538	5567
1499	1448	5572
1492	1390	5577
1485	1383	5581
1492	1407	5586
1511	1458	5591
1515	1463	5596
1518	1470	5600
1540	1496	5605
1544	1595	5610
1529	1639	5614
1493	1576	5619
1483	1534	5623
1472	1495	5628
1457	1576	5634
1460	1681	5638
1483	1595	5643
1529	1466	5647
1565	1406	5652
1586	1391	5656
1615	1421	5661
1668	1474	5666
1672	1481	5670
1637	1478	5676
1620	1471	5680
1603	1488	5685
1583	1550	5689
1563	1592	5694
1552	1600	5699
1518	1549	5703
1483	1508	5708
1459	1504	5712
1466	1558	5718
1488	1546	5723
1496	1524	5727
1513	1496	5732
1502	1505	5736
1456	1583	5741
1397	1566	5745
1373	1513	5750
1374	1495	5755
1404	1550	5760
1420	1638	5765
1431	1609	5769
1436	1508	5774
1428	1435	5778
1414	1436	5783
1428	1590	5788
1448	1564	5792
1443	1439	5797
1444	1387	5801
1427	1380	5807
1389	1446	5812
1368	1455	5816
1384	1421	5821
1416	1408	5825
1432	1433	5830
1448	1480	5834
1429	1587	5839
1400	1545	5844
1405	1493	5849
1415	1458	5854
1424	1533	5858
1387	1625	5863
1365	1539	5867
1349	1437	5872
1350	1397	5877
1382	1384	5881
1415	1395	5886
1438	1430	5891
1452	1472	5896
1427	1499	5901
1390	1518	5905
1397	1568	5910
1431	1681	5914
1463	1629	5919
1470	1577	5923
1467	1527	5928
1463	1619	5934
1453	1583	5938
1450	1535	5943
1469	1480	5947
1486	1449	5952
1494	1440	5956
1498	1552	5961
1510	1578	5966
1539	1498	5970
1544	1466	5976
1543	1483	5980
1538	1622	5985
1522	1547	5990
1500	1467	5994
1496	1425	5999
1494	1431	6003
1485	1485	6008
1491	1536	6012
1517	1507	6018
1530	1482	6023
1529	1474	6027
1503	1492	6032
1471	1621	6036
1506	1703	6041
1509	1595	6046
1529	1493	6050
1540	1448	6055
1537	1433	6060
1473	1505	6065
1429	1598	6069
1451	1562	6074
1501	1482	6079
1517	1433	6083
1492	1432	6088
1478	1493	6092
1464	1531	6097
1499	1493	6102
1542	1463	6107
1560	1468	6112
1548	1541	6116
1521	1562	6121
1472	1534	6125
1449	1488	6130
1455	1469	6135
1468	1508	6139
1466	1601	6145
1466	1605	6149
1485	1612	6154
1519	1514	6158
1524	1477	6163
1522	1506	6168
1544	1564	6172
1544	1495	6177
1531	1438	6181
1534	1426	6187
1534	1436	6191
1522	1504	6196
1503	1603	6201
1502	1547	6205
1508	1498	6210
1501	1520	6214
1489	1556	6219
1514	1583	6224
1516	1588	6228
1537	1487	6234
1597	1423	6238
1635	1431	6243
1662	1504	6247
1667	1612	6252
1653	1514	6257
1624	1466	6261
1592	1436	6266
1568	1472	6270
1539	1560	6276
1517	1494	6281
1521	1473	6285
1520	1471	6290
1510	1492	6294
1495	1566	6299
1530	1582	6303
1547	1592	6308
1512	1572	6313
1456	1513	6318
1423	1479	6323
1417	1505	6327
1436	1601	6332
1430	1563	6336
1433	1565	6341
1427	1533	6346
1419	1589	6350
1429	1653	6355
1466	1544	6360
1476	1510	6365
1470	1475	6370
1475	1456	6374
1439	1559	6379
1399	1622	6383
1391	1506	6388
1398	1424	6392
1403	1396	6397
1399	1398	6403
1391	1440	6407
1391	1491	6412
1408	1547	6416
1436	1538	6421
1456	1524	6425
1442	1540	6430
1404	1615	6435
1398	1616	6439
1418	1565	6445
1422	1548	6449
1431	1529	6454
1424	1523	6459
1415	1594	6463
1417	1591	6468
1410	1577	6472
1412	1533	6477
1416	1571	6481
1435	1591	6487
1414	1532	6492
1441	1455	6496
1489	1419	6501
1486	1427	6505
1456	1509	6510
1479	1550	6514
1496	1534	6519
1510	1468	6524
1518	1503	6529
1518	1576	6534
1508	1608	6538
1500	1515	6543
1489	1462	6548
1495	1412	6552
1525	1395	6557
1561	1475	6561
1546	1520	6566
1527	1469	6571
1511	1443	6576
1522	1434	6581
1526	1494	6585
1535	1616	6590
1524	1525	6594
1504	1444	6599
1485	1433	6603
1469	1448	6608
1493	1493	6614
1535	1500	6618
1569	1503	6623
1565	1500	6627
1570	1556	6632
1545	1688	6637
1513	1592	6641
1496	1536	6646
1501	1462	6650
1498	1440	6656
1484	1495	6660
1478	1601	6665
1480	1540	6670
1489	1510	6674
1507	1444	6679
1532	1466	6683
1536	1476	6688
1532	1572	6693
1522	1622	6697
1489	1468	6703
1452	1397	6707
1392	1396	6712
1434	1422	6716
1544	1534	6721
1577	1554	6726
1563	1511	6730
1552	1410	6735
1527	1366	6739
1501	1369	6745
1510	1410	6749
1525	1472	6754
1519	1480	6759
1528	1464	6763
1531	1536	6768
1524	1619	6772
1506	1576	6777
1523	1540	6782
1511	1493	6787
1517	1481	6792
1535	1496	6796
1544	1547	6801
1556	1621	6805
1599	1589	6810
1631	1657	6815
1655	1712	6819
1658	1642	6824
1634	1571	6829
1602	1502	6834
1589	1542	6838
1606	1478	6843
1611	1480	6848
1597	1426	6852
1572	1397	6857
1521	1376	6861
1477	1418	6866
1501	1560	6872
1539	1550	6876
1566	1530	6881
1544	1474	6885
1505	1423	6890
1482	1419	6894
1450	1471	6899
1425	1528	6904
1415	1517	6908
1436	1496	6914
1466	1502	6918
1489	1548	6923
1481	1620	6927
1481	1596	6932
1502	1585	6937
1506	1556	6941
1464	1576	6946
1412	1643	6950
1377	1695	6956
1356	1635	6961
1384	1512	6965
1418	1450	6970
1434	1484	6974
1449	1549	6979
1467	1489	6983
1458	1422	6988
1450	1410	6993
1446	1456	6998
1429	1553	7003
1404	1522	7007
1416	1604	7012
1416	1647	7017
1409	1517	7021
1428	1421	7026
1425	1394	7030
1396	1393	7035
1385	1409	7040
1399	1431	7045
1420	1460	7050
1440	1515	7054
1464	1630	7059
1472	1655	7063
1455	1559	7068
1478	1503	7072
1491	1484	7077
1490	1576	7083
1453	1590	7087
1455	1535	7092
1465	1498	7096
1486	1470	7101
1505	1523	7106
1519	1657	7110
1536	1625	7115
1545	1529	7119
1540	1510	7124
1515	1590	7129
1499	1549	7134
1512	1477	7139
1515	1405	7143
1519	1376	7148
1531	1369	7152
1530	1418	7157
1513	1603	7161
1492	1580	7166
1507	1426	7172
1527	1369	7176
1538	1367	7181
1550	1472	7185
1524	1636	7190
1500	1544	7195
1520	1432	7199
1540	1381	7204
1543	1380	7208
1528	1432	7214
1535	1518	7218
1543	1454	7223
1550	1457	7228
1538	1528	7232
1518	1661	7237
1513	1630	7241
1510	1603	7246
1508	1512	7251
1481	1453	7256
1452	1429	7261
1482	1469	7265
1501	1606	7270
1511	1541	7274
1529	1456	7279
1542	1438	7284
1543	1522	7288
1509	1688	7293
1480	1592	7298
1500	1468	7303
1516	1437	7307
1514	1454	7312
1504	1547	7317
1532	1586	7321
1545	1553	7326
1534	1452	7330
1534	1380	7335
1533	1368	7341
1526	1395	7345
1523	1453	7350
1502	1513	7354
1513	1532	7359
1522	1536	7363
1505	1503	7368
1486	1494	7373
1497	1554	7377
1532	1657	7383
1592	1583	7387
1635	1574	7392
1641	1524	7396
1620	1543	7401
1605	1581	7406
1623	1614	7410
1651	1598	7415
1646	1565	7419
1599	1613	7425
1568	1676	7430
1561	1668	7434
1541	1548	7439
1519	1479	7443
1537	1398	7448
1535	1371	7452
1518	1393	7457
1489	1492	7462
1482	1548	7467
1465	1518	7472
1459	1471	7476
1461	1582	7481
1457	1598	7485
1436	1500	7490
1406	1477	7495
1433	1468	7499
1483	1454	7504
1503	1473	7508
1493	1526	7514
1468	1634	7519
1422	1583	7523
1421	1581	7528
1438	1621	7532
1438	1709	7537
1427	1610	7541
1409	1549	7546
1394	1505	7552
1412	1476	7556
1433	1497	7561
1422	1544	7565
1387	1614	7570
1409	1563	7575
1451	1528	7579
1469	1504	7584
1433	1588	7588
1416	1765	7593
1416	1610	7598
1437	1496	7603
1453	1452	7608
1444	1445	7612
1440	1519	7617
1418	1656	7621
1413	1528	7626
1427	1502	7630
1456	1523	7635
1454	1594	7641
1437	1590	7645
1434	1501	7650
1446	1462	7654
1478	1445	7659
1509	1470	7664
1535	1616	7668
1532	1741	7673
1506	1589	7677
1513	1455	7683
1525	1422	7687
1540	1422	7692
1542	1474	7697
1527	1608	7701
1509	1541	7706
1484	1463	7710
1507	1437	7715
1528	1444	7719
1502	1525	7725
1500	1662	7730
1511	1550	7734
1519	1474	7739
1523	1452	7743
1527	1462	7748
1523	1535	7753
1516	1625	7757
1529	1598	7762
1566	1606	7767
1573	1557	7772
1552	1491	7776
1552	1535	7781
1534	1634	7786
1515	1608	7790
1477	1510	7795
1477	1475	7799
1502	1500	7804
1555	1573	7809
1547	1675	7814
1510	1542	7819
1504	1428	7823
1499	1393	7828
1491	1461	7832
1475	1572	7837
1471	1474	7842
1484	1402	7846
1488	1374	7852
1506	1379	7856
1524	1441	7861
1517	1576	7865
1507	1534	7870
1504	1474	7875
1509	1447	7879
1511	1474	7884
1494	1613	7888
1495	1618	7894
1502	1548	7899
1522	1473	7903
1534	1453	7908
1535	1553	7912
1544	1634	7917
1538	1607	7921
1544	1555	7926
1531	1467	7931
1504	1428	7936
1487	1436	7941
1478	1526	7945
1491	1504	7950
1526	1439	7954
1572	1420	7959
1609	1437	7964
1624	1498	7968
1628	1660	7973
1626	1603	7977
1616	1499	7983
1613	1467	7988
1599	1466	7992
1562	1567	7997
1516	1660	8001
1511	1645	8006
1524	1530	8010
1539	1461	8015
1545	1452	8020
1536	1495	8025
1515	1490	8030
1490	1462	8034
1495	1474	8039
1508	1505	8043
1501	1606	8048
1490	1662	8053
1488	1574	8057
1425	1463	8062
1404	1432	8067
1423	1449	8072
1443	1569	8077
1453	1746	8081
1446	1634	8086
1446	1522	8090
1447	1423	8095
1453	1392	8099
1445	1426	8104
1440	1512	8110
1432	1576	8114
1420	1580	8119
1402	1510	8123
1386	1562	8128
1389	1520	8132
1437	1505	8137
1521	1419	8142
1532	1459	8146
1485	1592	8152
1405	1616	8156
1406	1610	8161
1447	1556	8166
1475	1569	8170
1456	1569	8175
1429	1482	8179
1411	1493	8184
1415	1444	8188
1424	1407	8194
1460	1405	8199
1516	1527	8203
1505	1783	8208
1450	1750	8212
1414	1599	8217
1421	1445	8221
1470	1530	8226
1496	1721	8231
1471	1598	8236
1423	1481	8241
1331	1454	8245
1394	1550	8250
1500	1519	8255
1545	1489	8259
1494	1489	8264
1442	1421	8268
1451	1460	8273
1474	1455	8278
1506	1429	8283
1467	1407	8288
1444	1369	8292
1450	1369	8297
1490	1405	8301
1531	1597	8306
1540	1839	8310
1499	1748	8315
1486	1619	8321
1529	1514	8325
1494	1534	8330
1507	1786	8334
1509	1883	8339
1512	1705	8344
1546	1602	8348
1529	1550	8353
1496	1516	8357
1516	1574	8363
1546	1569	8367
1501	1513	8372
1449	1460	8377
1424	1478	8381
1476	1562	8386
1542	1599	8390
1520	1584	8395
1480	1522	8399
1465	1463	8404
1472	1463	8410
1485	1501	8414
1480	1563	8419
1459	1717	8423
1480	1807	8428
1478	1677	8433
1502	1641	8437
1528	1699	8442
1518	1656	8446
1539	1734	8452
1540	1652	8456
1550	1598	8461
1564	1637	8466
1550	1731	8470
1565	1624	8475
1555	1478	8479
1525	1408	8484
1501	1466	8489
1456	1688	8494
1437	1555	8499
1473	1451	8503
1500	1450	8508
1515	1503	8512
1486	1656	8517
1540	1700	8522
1629	1635	8526
1679	1692	8531
1682	1644	8536
1674	1647	8541
1655	1704	8545
1614	1617	8550
1586	1557	8555
1556	1491	8559
1535	1523	8564
1550	1600	8568
1591	1559	8573
1629	1580	8579
1593	1665	8583
1576	1624	8588
1577	1596	8592
1569	1634	8597
1546	1684	8601
1537	1682	8606
1520	1639	8611
1455	1645	8615
1421	1627	8621
1398	1555	8625
1354	1568	8630
1359	1662	8634
1408	1656	8639
1445	1594	8644
1468	1632	8648
1478	1516	8653
1454	1515	8657
1443	1522	8663
1463	1577	8668
1437	1556	8672
1424	1452	8677
1430	1410	8681
1449	1468	8686
1423	1449	8690
1397	1380	8695
1413	1325	8700
1403	1298	8705
1371	1336	8710
1382	1435	8714
1415	1367	8719
1391	1341	8723
1383	1337	8728
1395	1379	8733
1434	1618	8737
1444	1449	8742
1442	1355	8747
1441	1308	8752
1481	1304	8757
1517	1368	8761
1462	1371	8766
1416	1257	8770
1393	1166	8775
1362	1109	8779
1390	1150	8784
1396	1225	8790
1397	1246	8794
1457	1211	8799
1514	1165	8803
1520	1161	8808
1515	1126	8812
1503	1132	8817
1486	1173	8822
1499	1172	8826
1478	1170	8832
1467	1227	8836
1477	1264	8841
1459	1217	8846
1459	1267	8850
1548	1313	8855
1566	1311	8859
1539	1202	8864
1554	1193	8868
1547	1219	8873
1512	1188	8879
1518	1214	8883
1547	1311	8888
1569	1351	8892
1539	1261	8897
1509	1219	8902
1501	1227	8906
1521	1187	8911
1564	1152	8915
1516	1120	8921
1478	1124	8925
1497	1181	8930
1460	1211	8935
1431	1268	8939
1402	1429	8944
1402	1358	8948
1487	1293	8953
1587	1218	8957
1645	1214	8963
1596	1234	8968
1535	1270	8972
1540	1339	8977
1491	1385	8981
1417	1416	8986
1389	1470	8991
1404	1442	8995
1433	1386	9000
1423	1290	9005
1435	1235	9010
1491	1217	9014
1567	1249	9019
1622	1298	9024
1678	1348	9028
1612	1442	9033
1530	1569	9037
1480	1466	9042
1477	1381	9047
1443	1386	9052
1358	1377	9057
1355	1333	9061
1450	1280	9066
1539	1280	9070
1548	1303	9075
1560	1333	9080
1572	1392	9084
1586	1430	9090
1649	1486	9094
1652	1507	9099
1658	1579	9103
1661	1513	9108
1611	1498	9113
1550	1418	9117
1557	1375	9122
1552	1366	9126
1562	1381	9132
1557	1410	9137
1522	1443	9141
1442	1475	9146
1445	1497	9150
1476	1511	9155
1487	1523	9159
1474	1450	9164
1500	1373	9169
1515	1353	9174
1494	1354	9179
1479	1363	9183
1443	1379	9188
1415	1411	9192
1399	1443	9197
1394	1499	9202
1396	1478	9206
1442	1492	9211
1483	1523	9216
1469	1524	9221
1508	1602	9226
1467	1568	9230
1419	1453	9235
1381	1390	9239
1352	1382	9244
1303	1396	9248
1321	1480	9253
1361	1437	9259
1390	1389	9263
1427	1377	9268
1456	1392	9272
1509	1418	9277
1536	1471	9281
1515	1502	9286
1483	1477	9291
1410	1492	9295
1356	1488	9300
1336	1460	9305
1363	1545	9310
1404	1422	9315
1384	1388	9319
1375	1358	9324
1404	1403	9328
1427	1422	9333
1442	1417	9337
1455	1403	9342
1462	1380	9348
1525	1392	9352
1569	1395	9357
1537	1376	9361
1487	1466	9366
1459	1448	9371
1420	1376	9375
1401	1351	9380
1415	1307	9384
1444	1293	9390
1469	1309	9394
1485	1341	9399
1475	1375	9404
1484	1410	9408
1495	1416	9413
1519	1445	9417
1554	1502	9422
1543	1638	9426
1496	1526	9432
1485	1461	9437
1484	1526	9441
1444	1553	9446
1438	1399	9450
1457	1334	9455
1464	1310	9460
1465	1317	9464
1482	1381	9469
1519	1420	9474
1526	1385	9479
1512	1398	9483
1503	1467	9488
1491	1491	9493
1488	1502	9497
1474	1436	9502
1442	1386	9506
1404	1367	9511
1416	1407	9517
1458	1502	9521
1466	1456	9526
1483	1417	9530
1475	1388	9535
1467	1402	9539
1466	1545	9544
1526	1532	9549
1546	1553	9553
1521	1432	9559
1490	1368	9563
1476	1344	9568
1463	1438	9572
1470	1428	9577
1477	1344	9582
1479	1321	9586
1465	1331	9591
1466	1359	9595
1519	1431	9601
1571	1461	9606
1565	1455	9610
1536	1450	9615
1493	1426	9619
1480	1515	9624
1467	1503	9628
1463	1522	9633
1491	1509	9638
1530	1446	9643
1555	1455	9648
1594	1559	9652
1606	1486	9657
1594	1493	9662
1592	1460	9666
1566	1471	9671
1523	1540	9675
1487	1489	9680
1487	1456	9684
1493	1528	9690
1493	1545	9695
1484	1495	9699
1474	1399	9704
1463	1364	9708
1475	1364	9713
1464	1395	9717
1441	1494	9722
1431	1538	9728
1423	1527	9732
1397	1434	9737
1411	1393	9741
1424	1389	9746
1432	1421	9751
1427	1518	9755
1446	1523	9760
1462	1483	9764
1472	1478	9769
1479	1521	9774
1512	1557	9779
1460	1581	9784
1398	1543	9788
1386	1548	9793
1385	1552	9797
1368	1526	9802
1355	1597	9806
1373	1565	9811
1411	1460	9817
1454	1394	9821
1484	1412	9826
1498	1535	9830
1472	1506	9835
1439	1449	9840
1400	1404	9844
1390	1446	9849
1396	1546	9853
1389	1464	9859
1395	1426	9863
1423	1426	9868
1423	1483	9873
1404	1536	9877
1428	1523	9882
1467	1476	9886
1477	1479	9891
1475	1532	9896
1448	1632	9901
1450	1602	9906
1504	1555	9910
1552	1528	9915
1539	1563	9919
1505	1538	9924
1457	1517	9929
1441	1488	9933
1445	1510	9938
1453	1698	9943
1484	1627	9948
1476	1466	9952
1479	1411	9957
1484	1406	9962
1487	1472	9966
1532	1487	9971
1540	1439	9975
1542	1437	9980
1539	1463	9986
1545	1516	9990
1546	1577	9995
1522	1510	9999
1501	1493	10004
1411	1586	10008
1367	1523	10013
1389	1470	10018
1438	1468	10022
1443	1444	10028
1449	1442	10033
1483	1512	10037
1530	1559	10042
1545	1617	10047
1543	1588	10051
1498	1544	10056
1456	1526	10060
1468	1452	10065
1481	1427	10071
1490	1435	10075
1486	1401	10080
1504	1410	10085
1503	1430	10089
1505	1470	10094
1479	1500	10098
1450	1510	10103
1464	1487	10108
1492	1497	10113
1498	1522	10118
1524	1546	10123
1535	1560	10127
1530	1521	10132
1518	1510	10136
1486	1508	10141
1483	1519	10146
1449	1539	10150
1452	1578	10156
1509	1556	10161
1527	1466	10165
1534	1472	10170
1577	1486	10175
1612	1459	10179
1608	1461	10184
1586	1460	10188
1572	1455	10193
1551	1486	10199
1528	1612	10203
1499	1547	10208
1506	1510	10213
1493	1496	10217
1509	1482	10222
1542	1475	10226
1546	1502	10231
1495	1609	10236
1472	1656	10241
1475	1581	10246
1471	1540	10251
1455	1556	10255
1437	1584	10260
1383	1472	10264
1406	1410	10269
1464	1388	10274
1495	1472	10278
1518	1630	10284
1487	1577	10289
1469	1447	10293
1456	1394	10298
1437	1534	10302
1430	1580	10307
1434	1400	10312
1425	1339	10316
1434	1328	10321
1417	1350	10327
1435	1380	10331
1484	1421	10336
1510	1462	10341
1511	1494	10345
1513	1523	10350
1468	1565	10354
1432	1610	10359
1433	1731	10364
1425	1731	10369
1442	1593	10374
1450	1607	10379
1463	1685	10383
1453	1545	10388
1437	1497	10392
1456	1462	10397
1471	1493	10402
1469	1662	10406
1454	1609	10412
1460	1504	10417
1498	1454	10421
1482	1407	10426
1478	1437	10430
1486	1549	10435
1504	1573	10440
1514	1435	10444
1522	1388	10449
1523	1383	10455
1525	1418	10459
1527	1532	10464
1520	1581	10469
1508	1493	10473
1484	1454	10478
1453	1461	10482
1467	1497	10487
1482	1601	10492
1499	1514	10497
1507	1461	10502
1479	1448	10507
1483	1429	10511
1500	1556	10516
1543	1567	10520
1560	1528	10525
1565	1428	10530
1540	1399	10534
1517	1449	10540
1504	1490	10545
1484	1454	10549
1477	1413	10554
1465	1410	10558
1463	1474	10563
1474	1559	10568
1490	1536	10572
1469	1455	10577
1461	1427	10583
1495	1439	10587
1499	1512	10592
1501	1675	10597
1481	1566	10601
1466	1499	10606
1482	1481	10610
1476	1502	10615
1464	1500	10620
1490	1471	10625
1538	1446	10630
1561	1487	10635
1583	1615	10639
1567	1576	10644
1540	1504	10648
1543	1451	10653
1501	1427	10658
1448	1457	10662
1434	1527	10668
1480	1542	10673
1515	1519	10677
1507	1524	10682
1492	1545	10686
1506	1601	10691
1529	1539	10696
1552	1505	10700
1569	1543	10705
1560	1547	10711
1565	1517	10715
1576	1538	10720
1585	1633	10725
1552	1575	10729
1523	1432	10734
1533	1370	10738
1536	1352	10743
1539	1381	10748
1534	1403	10753
1531	1423	10758
1523	1433	10763
1507	1453	10767
1512	1476	10772
1494	1581	10776
1474	1772	10781
1487	1688	10786
1502	1524	10790
1518	1446	10796
1494	1423	10801
1486	1450	10805
1480	1539	10810
1470	1518	10814
1464	1430	10819
1459	1372	10824
1440	1399	10828
1433	1510	10833
1448	1530	10839
1483	1458	10843
1488	1430	10848
1475	1436	10853
1466	1381	10857
1486	1382	10862
1485	1356	10866
1474	1365	10871
1474	1403	10876
1477	1498	10881
1474	1525	10886
1471	1441	10891
1456	1448	10895
1459	1480	10900
1461	1475	10904
1455	1520	10909
1486	1478	10914
1494	1509	10918
1461	1484	10924
1448	1420	10929
1473	1389	10933
1484	1384	10938
1513	1433	10942
1533	1706	10947
1503	1602	10952
1472	1469	10956
1456	1384	10961
1482	1385	10967
1501	1368	10971
1508	1334	10976
1498	1384	10981
1499	1362	10985
1505	1358	10990
1512	1397	10994
1493	1413	10999
1497	1415	11004
1502	1422	11009
1510	1446	11014
1506	1569	11019
1511	1611	11023
1511	1548	11028
1523	1487	11032
1517	1427	11037
1529	1419	11042
1541	1443	11046
1504	1541	11052
1467	1544	11057
1474	1578	11061
1485	1576	11066
1486	1578	11071
1501	1492	11075
1489	1466	11080
1492	1430	11084
1497	1438	11089
1506	1447	11095
1522	1450	11099
1537	1566	11104
1533	1534	11109
1511	1531	11113
1485	1494	11118
1493	1452	11122
1518	1387	11127
1534	1359	11132
1532	1357	11137
1518	1391	11142
1503	1471	11147
1478	1550	11151
1480	1496	11156
1523	1475	11160
1508	1484	11165
1506	1537	11170
1544	1639	11174
1536	1583	11180
1517	1534	11185
1476	1491	11189
1453	1487	11194
1472	1506	11199
1502	1553	11203
1526	1590	11208
1541	1655	11212
1562	1626	11217
1594	1688	11223
1606	1674	11227
1616	1499	11232
1622	1415	11237
1604	1455	11241
1568	1599	11246
1537	1483	11250
1522	1398	11255
1521	1365	11260
1537	1363	11265
1512	1387	11270
1491	1432	11275
1518	1480	11279
1539	1488	11284
1548	1497	11288
1563	1533	11293
1567	1673	11298
1550	1720	11302
1494	1567	11308
1457	1526	11313
1442	1514	11317
1427	1531	11322
1437	1605	11326
1457	1631	11331
1474	1568	11336
1488	1565	11340
1500	1640	11345
1483	1689	11351
1460	1642	11355
1446	1548	11360
1433	1521	11365
1409	1558	11369
1416	1676	11374
1432	1603	11378
1444	1498	11383
1454	1459	11388
1445	1455	11393
1470	1440	11398
1497	1455	11403
1499	1480	11407
1484	1528	11412
1477	1660	11416
1467	1605	11421
1460	1545	11426
1464	1519	11430
1468	1489	11436
1470	1484	11441
1456	1530	11445
1442	1560	11450
1429	1606	11454
1412	1613	11459
1433	1604	11464
1489	1563	11468
1516	1513	11473
1512	1505	11479
1495	1547	11483
1482	1645	11488
1470	1631	11493
1480	1535	11497
1491	1499	11502
1501	1491	11506
1510	1541	11511
1518	1697	11516
1509	1697	11521
1492	1582	11526
1481	1509	11531
1489	1446	11535
1503	1467	11540
1487	1525	11544
1491	1555	11549
1522	1517	11554
1519	1458	11558
1530	1456	11564
1541	1516	11569
1537	1557	11573
1531	1544	11578
1528	1516	11583
1511	1529	11587
1491	1539	11592
1491	1567	11596
1484	1568	11601
1479	1635	11607
1483	1652	11611
1492	1603	11616
1499	1567	11621
1486	1619	11625
1481	1668	11630
1493	1535	11634
1535	1461	11639
1573	1513	11644
1559	1592	11649
1537	1539	11654
1460	1644	11659
1433	1553	11663
1454	1405	11668
1519	1360	11672
1573	1402	11677
1579	1559	11682
1537	1655	11686
1483	1495	11692
1492	1397	11697
1494	1359	11701
1482	1406	11706
1470	1524	11710
1462	1569	11715
1498	1444	11720
1508	1403	11724
1529	1421	11729
1550	1540	11735
1553	1573	11739
1535	1553	11744
1520	1586	11749
1502	1570	11753
1471	1458	11758
1509	1387	11762
1609	1414	11767
1698	1497	11772
1693	1569	11777
1573	1546	11782
1512	1534	11787
1508	1522	11791
1533	1555	11796
1559	1563	11800
1580	1630	11805
1594	1718	11810
1596	1613	11814
1546	1544	11820
1500	1544	11825
1474	1582	11829
1467	1582	11834
1480	1591	11838
1419	1591	11843
1380	1658	11848
1362	1631	11852
1406	1637	11857
1469	1589	11863
1473	1478	11867
1476	1521	11872
1500	1554	11877
1483	1525	11881
1439	1438	11886
1430	1395	11890
1436	1428	11895
1440	1528	11900
1412	1555	11905
1395	1508	11910
1388	1518	11915
1400	1616	11919
1448	1849	11924
1477	1744	11928
1450	1652	11933
1453	1637	11938
1475	1658	11942
1478	1659	11948
1424	1587	11953
1403	1545	11957
1433	1643	11962
1461	1724	11966
1428	1652	11971
1385	1527	11976
1377	1565	11980
1381	1628	11985
1407	1555	11991
1450	1644	11995
1455	1697	12000
1496	1592	12005
1613	1579	12009
1643	1483	12014
1577	1595	12018
1510	1661	12023
1486	1646	12028
1439	1557	12033
1388	1613	12038
1392	1564	12043
1439	1576	12047
1426	1669	12052
1450	1539	12056
1513	1460	12061
1638	1542	12066
1650	1626	12070
1621	1622	12076
1566	1495	12081
1508	1472	12085
1481	1437	12090
1441	1487	12094
1424	1513	12099
1465	1513	12104
1489	1501	12108
1517	1542	12113
1526	1535	12119
1567	1525	12123
1575	1507	12128
1556	1561	12133
1536	1615	12137
1520	1708	12142
1537	1738	12146
1533	1689	12151
1539	1594	12156
1539	1536	12161
1479	1514	12166
1475	1543	12171
1538	1650	12175
1544	1670	12180
1468	1646	12184
1462	1538	12189
1554	1563	12194
1586	1551	12198
1560	1576	12204
1578	1542	12209
1570	1509	12213
1516	1505	12218
1485	1508	12222
1464	1583	12227
1488	1526	12232
1513	1541	12236
1537	1579	12241
1550	1598	12247
1511	1682	12251
1507	1612	12256
1505	1482	12261
1456	1448	12265
1469	1484	12270
1507	1551	12274
1510	1597	12279
1487	1518	12284
1447	1431	12289
1508	1372	12294
1600	1447	12299
1676	1555	12303
1635	1449	12308
1629	1381	12312
1711	1377	12317
1719	1382	12322
1626	1434	12326
1573	1483	12332
1530	1466	12337
1499	1317	12341
1480	1316	12346
1471	1475	12350
1531	1441	12355
1519	1425	12360
1512	1350	12364
1511	1304	12369
1448	1255	12375
1387	1252	12379
1360	1288	12384
1386	1377	12389
1407	1339	12393
1430	1341	12398
1430	1350	12402
1475	1432	12407
1545	1529	12412
1535	1450	12417
1488	1343	12422
1442	1305	12427
1427	1305	12431
1424	1357	12436
1418	1384	12440
1366	1326	12445
1353	1249	12450
1351	1231	12454
1348	1317	12460
1391	1384	12465
1409	1311	12469
1405	1266	12474
1387	1214	12478
1396	1193	12483
1412	1217	12488
1431	1279	12492
1486	1418	12497
1515	1338	12503
1449	1323	12507
1380	1302	12512
1329	1312	12517
1306	1319	12521
1312	1460	12526
1321	1483	12530
1356	1391	12535
1409	1332	12540
1442	1354	12545
1446	1274	12550
1452	1270	12555
1498	1373	12559
1568	1325	12564
1548	1302	12568
1504	1268	12573
1478	1284	12578
1478	1345	12582
1465	1475	12588
1449	1505	12593
1431	1420	12597
1454	1458	12602
1462	1484	12606
1497	1387	12611
1539	1397	12616
1550	1334	12620
1519	1294	12625
1488	1284	12631
1464	1326	12635
1454	1432	12640
1473	1435	12645
1473	1488	12649
1475	1498	12654
1481	1429	12658
1470	1420	12663
1533	1446	12668
1659	1530	12673
1656	1609	12678
1518	1604	12683
1400	1448	12687
1447	1400	12692
1502	1435	12696
1523	1472	12701
1543	1431	12706
1527	1389	12710
1512	1384	12716
1502	1410	12721
1485	1580	12725
1480	1533	12730
1530	1470	12735
1549	1445	12739
1535	1497	12744
1483	1576	12748
1413	1435	12753
1371	1425	12759
1397	1364	12763
1443	1358	12768
1500	1367	12773
1544	1405	12777
1565	1529	12782
1571	1602	12786
1539	1544	12791
1499	1437	12796
1492	1389	12801
1508	1397	12806
1542	1511	12811
1552	1431	12815
1559	1412	12820
1504	1431	12824
1428	1447	12829
1472	1484	12834
1553	1504	12838
1598	1526	12844
1630	1554	12849
1660	1562	12853
1622	1517	12858
1566	1452	12862
1587	1353	12867
1605	1346	12872
1597	1367	12876
1570	1524	12881
1506	1583	12887
1508	1466	12891
1544	1434	12896
1551	1416	12901
1507	1417	12905
1487	1427	12910
1529	1464	12914
1545	1509	12919
1509	1554	12924
1462	1698	12929
1461	1661	12934
1467	1663	12939
1478	1684	12943
1457	1568	12948
1423	1490	12952
1409	1448	12957
1406	1433	12962
1385	1471	12966
1346	1566	12972
1382	1537	12977
1432	1533	12981
1450	1538	12986
1429	1478	12990
1390	1491	12995
1389	1502	13000
1415	1494	13004
1444	1506	13009
1443	1551	13015
1436	1580	13019
1424	1550	13024
1429	1453	13029
1429	1410	13033
1423	1396	13038
1382	1421	13042
1323	1585	13047
1297	1533	13052
1351	1532	13057
1407	1434	13062
1426	1362	13067
1404	1396	13071
1383	1438	13076
1424	1475	13080
1459	1450	13085
1477	1421	13090
1481	1421	13094
1484	1444	13100
1470	1470	13105
1463	1554	13109
1439	1572	13114
1438	1553	13118
1464	1667	13123
1489	1615	13128
1486	1527	13132
1481	1426	13137
1488	1403	13143
1490	1377	13147
1484	1377	13152
1478	1425	13157
1488	1538	13161
1492	1537	13166
1503	1496	13170
1504	1467	13175
1500	1457	13180
1512	1454	13185
1506	1435	13190
1485	1467	13195
1497	1431	13199
1516	1384	13204
1521	1350	13208
1526	1366	13213
1538	1396	13218
1541	1465	13222
1536	1491	13228
1522	1479	13233
1505	1501	13237
1493	1575	13242
1464	1633	13247
1445	1587	13251
1453	1518	13256
1489	1481	13260
1526	1499	13265
1530	1577	13271
1497	1592	13275
1481	1521	13280
1508	1474	13285
1520	1474	13289
1517	1429	13294
1520	1434	13298
1513	1469	13303
1493	1498	13308
1491	1538	13313
1506	1493	13318
1511	1474	13323
1510	1461	13327
1494	1503	13332
1479	1603	13336
1459	1539	13341
1440	1501	13346
1439	1492	13350
1476	1453	13356
1506	1421	13361
1520	1455	13365
1523	1439	13370
1514	1457	13374
1506	1470	13379
1514	1488	13384
1552	1549	13388
1592	1498	13393
1623	1468	13399
1651	1474	13403
1655	1548	13408
1644	1522	13413
1631	1520	13417
1629	1469	13422
1588	1473	13426
1535	1461	13431
1552	1421	13436
1575	1452	13441
1561	1367	13446
1543	1350	13451
1523	1376	13455
1510	1449	13460
1500	1440	13464
1490	1437	13469
1476	1476	13474
1459	1507	13478
1416	1508	13484
1395	1540	13489
1432	1496	13493
1450	1455	13498
1449	1472	13502
1454	1490	13507
1452	1505	13512
1448	1619	13516
1433	1531	13521
1429	1462	13527
1422	1448	13531
1424	1509	13536
1431	1443	13541
1428	1453	13545
1422	1475	13550
1416	1420	13554
1410	1395	13559
1401	1400	13564
1392	1425	13569
1395	1463	13574
1402	1472	13579
1402	1501	13583
1418	1608	13588
1420	1667	13592
1411	1599	13597
1407	1503	13602
1397	1468	13606
1382	1435	13612
1375	1476	13617
1382	1431	13621
1421	1416	13626
1436	1440	13630
1437	1463	13635
1443	1475	13640
1453	1508	13644
1462	1594	13649
1469	1552	13655
1453	1532	13659
1458	1539	13664
1463	1537	13669
1446	1535	13673
1445	1523	13678
1501	1496	13682
1521	1490	13687
1504	1507	13692
1513	1549	13697
1515	1509	13702
1527	1479	13707
1537	1477	13711
1540	1511	13716
1536	1545	13720
1530	1590	13725
1523	1636	13730
1504	1569	13734
1489	1511	13740
1479	1471	13745
1476	1483	13749
1484	1559	13754
1499	1531	13758
1521	1465	13763
1534	1453	13768
1533	1412	13772
1504	1394	13777
1490	1387	13783
1502	1415	13787
1521	1438	13792
1530	1464	13797
1530	1517	13801
1532	1565	13806
1513	1619	13810
1502	1522	13815
1493	1505	13820
1482	1498	13825
1475	1485	13830
1479	1536	13835
1500	1489	13839
1517	1487	13844
1508	1499	13848
1501	1534	13853
1484	1590	13858
1460	1578	13862
1473	1489	13868
1497	1449	13873
1506	1437	13877
1498	1443	13882
1490	1482	13886
1507	1429	13891
1520	1421	13896
1525	1409	13900
1529	1415	13905
1534	1445	13911
1517	1568	13915
1497	1506	13920
1500	1564	13925
1498	1492	13929
1498	1480	13934
1500	1462	13938
1484	1450	13943
1479	1427	13948
1503	1416	13953
1535	1450	13958
1549	1542	13963
1572	1483	13967
1622	1543	13972
1654	1505	13976
1657	1458	13981
1654	1470	13986
1670	1446	13990
1652	1442	13996
1622	1496	14001
1595	1569	14005
1539	1466	14010
1513	1423	14014
1519	1437	14019
1513	1404	14024
1487	1382	14028
1475	1380	14033
1488	1392	14039
1507	1434	14043
1498	1473	14048
1463	1486	14053
1445	1517	14057
1451	1566	14062
1465	1610	14066
1454	1547	14071
1431	1554	14076
1414	1560	14081
1400	1530	14086
1385	1526	14091
1412	1418	14095
1455	1400	14100
1465	1390	14104
1460	1395	14109
1446	1418	14114
1428	1457	14118
1417	1479	14124
1410	1531	14129
1400	1631	14133
1392	1601	14138
1365	1471	14142
1356	1455	14147
1368	1448	14152
1374	1469	14156
1379	1510	14161
1393	1481	14167
1408	1483	14171
1410	1550	14176
1413	1467	14181
1415	1448	14185
1407	1465	14190
1393	1513	14194
1384	1453	14199
1386	1446	14204
1399	1465	14209
1416	1428	14214
1440	1457	14219
1452	1471	14223
1455	1405	14228
1469	1390	14232
1484	1390	14237
1487	1418	14242
1481	1451	14246
1483	1496	14252
1491	1529	14257
1503	1571	14261
1501	1557	14266
1498	1533	14270
1501	1557	14275
1501	1513	14280
1507	1504	14284
1529	1510	14289
1529	1457	14295
1516	1531	14299
1533	1445	14304
1527	1423	14309
1510	1434	14313
1524	1407	14318
1540	1465	14322
1526	1463	14327
1512	1465	14332
1517	1503	14337
1523	1502	14342
1518	1481	14347
1510	1497	14351
1515	1533	14356
1516	1562	14360
1507	1589	14365
1510	1581	14370
1520	1513	14374
1521	1579	14380
1499	1501	14385
1493	1437	14389
1489	1429	14394
1496	1421	14399
1520	1428	14403
1522	1462	14408
1502	1503	14412
1507	1475	14417
1512	1485	14423
1512	1517	14427
1510	1591	14432
1507	1495	14437
1506	1457	14441
1491	1495	14446
1461	1475	14450
1455	1428	14455
1479	1438	14460
1497	1416	14465
1505	1427	14470
1512	1461	14475
1519	1507	14479
1511	1570	14484
1503	1597	14488
1498	1558	14493
1494	1547	14498
1505	1507	14502
1519	1478	14508
1510	1474	14513
1509	1467	14517
1516	1507	14522
1518	1490	14526
1519	1464	14531
1516	1520	14536
1521	1549	14540
1558	1505	14545
1605	1479	14551
1641	1494	14555
1664	1430	14560
1653	1417	14565
1627	1417	14569
1603	1414	14574
1598	1413	14578
1601	1420	14583
1599	1478	14588
1591	1516	14593
1583	1492	14598
1562	1459	14603
1523	1435	14607
1487	1469	14612
1482	1487	14616
1471	1454	14621
1456	1432	14626
1458	1468	14630
1468	1476	14636
1475	1564	14641
1477	1526	14645
1461	1521	14650
1442	1531	14654
1417	1495	14659
1415	1470	14664
1424	1453	14668
1438	1402	14673
1437	1413	14679
1409	1446	14683
1400	1537	14688
1414	1591	14693
1431	1652	14697
1431	1485	14702
1423	1431	14706
1402	1422	14711
1376	1378	14716
1387	1450	14721
1383	1453	14726
1384	1431	14731
1394	1443	14735
1395	1494	14740
1396	1456	14744
1400	1452	14749
1399	1432	14754
1386	1409	14758
1387	1417	14764
1391	1430	14769
1407	1458	14773
1413	1513	14778
1399	1565	14782
1385	1523	14787
1401	1680	14792
1414	1547	14796
1421	1561	14801
1419	1472	14807
1407	1436	14811
1432	1426	14816
1476	1434	14821
1503	1445	14825
1508	1460	14830
1504	1488	14834
1510	1545	14839
1522	1586	14844
1521	1603	14849
1505	1585	14854
1506	1576	14859
1501	1597	14863
1497	1570	14868
1501	1595	14872
1514	1522	14877
1520	1502	14882
1528	1559	14886
1543	1466	14892
1548	1434	14897
1543	1453	14901
1533	1476	14906
1533	1447	14910
1527	1456	14915
1522	1477	14920
1510	1545	14924
1501	1568	14929
1503	1544	14935
1500	1513	14939
1509	1522	14944
1510	1542	14949
1522	1571	14953
1526	1522	14958
1531	1475	14962
1529	1438	14967
1524	1402	14972
1510	1410	14977
1505	1448	14982
1511	1532	14987
1516	1518	14991
1511	1480	14996
1507	1469	15000
1510	1404	15005
1501	1429	15010
1494	1441	15014
1486	1424	15020
1482	1431	15025
1467	1507	15029
1468	1489	15034
1497	1588	15039
1504	1515	15043
1513	1439	15048
1522	1447	15052
1520	1456	15057
1522	1476	15063
1516	1429	15067
1520	1496	15072
1512	1457	15077
1506	1422	15081
1512	1428	15086
1507	1468	15090
1509	1498	15095
1511	1580	15100
1510	1541	15105
1519	1474	15110
1515	1483	15115
1504	1540	15119
1503	1522	15124
1521	1570	15128
1526	1500	15133
1548	1502	15138
1597	1469	15142
1641	1511	15148
1662	1473	15153
1671	1408	15157
1662	1379	15162
1653	1377	15167
1630	1398	15171
1606	1432	15176
1585	1489	15180
1564	1563	15185
1541	1530	15191
1522	1531	15195
1507	1557	15200
1499	1535	15205
1486	1528	15209
1493	1480	15214
1489	1427	15218
1469	1441	15223
1455	1455	15228
1457	1431	15233
1446	1486	15238
1439	1409	15243
1445	1382	15247
1448	1402	15252
1434	1492	15256
1417	1489	15261
1396	1488	15266
1384	1534	15270
1401	1548	15276
1417	1528	15281
1424	1601	15285
1433	1459	15290
1441	1420	15294
1448	1395	15299
1449	1381	15304
1432	1402	15308
1428	1427	15313
1424	1462	15319
1398	1534	15323
1373	1533	15328
1375	1529	15333
1399	1510	15337
1410	1574	15342
1409	1590	15346
1397	1526	15351
1392	1494	15356
1394	1483	15361
1406	1486	15366
1411	1547	15371
1416	1619	15375
