1505	1510	4
1519	1524	9
1527	1513	13
1523	1513	18
1514	1509	22
1506	1494	27
1489	1474	31
1493	1466	36
1507	1477	40
1521	1464	45
1515	1448	50
1501	1478	54
1500	1488	59
1497	1502	63
1501	1491	68
1514	1475	72
1518	1459	77
1515	1445	81
1509	1438	87
1509	1439	91
1509	1460	96
1515	1497	100
1512	1492	105
1501	1484	109
1493	1484	114
1494	1493	118
1495	1545	123
1496	1516	128
1489	1492	133
1480	1464	137
1466	1459	142
1470	1489	146
1485	1490	151
1494	1484	156
1486	1483	160
1484	1491	165
1486	1503	169
1489	1514	175
1484	1529	179
1485	1563	184
1490	1548	188
1482	1556	193
1481	1559	197
1485	1548	202
1499	1575	206
1508	1553	211
1507	1507	216
1499	1507	221
1499	1507	225
1511	1499	230
1514	1472	235
1513	1463	239
1514	1489	244
1504	1525	248
1485	1473	253
1473	1456	258
1462	1456	263
1467	1554	267
1488	1516	272
1495	1488	276
1508	1442	281
1513	1423	285
1525	1463	290
1557	1459	294
1590	1419	300
1618	1409	304
1625	1409	309
1616	1417	314
1596	1464	318
1574	1481	323
1563	1456	327
1538	1429	332
1525	1426	336
1522	1499	342
1523	1526	346
1524	1468	351
1513	1424	355
1497	1403	360
1478	1443	364
1478	1538	369
1483	1467	373
1486	1427	378
1474	1391	382
1459	1412	388
1447	1509	393
1437	1448	397
1438	1387	402
1432	1373	406
1390	1381	411
1370	1469	415
1385	1458	420
1402	1421	424
1416	1416	430
1421	1571	434
1412	1572	439
1407	1524	443
1412	1412	448
1391	1368	452
1344	1368	457
1342	1467	461
1370	1463	466
1403	1390	472
1418	1351	476
1404	1338	481
1372	1429	485
1374	1417	490
1393	1385	494
1407	1359	499
1386	1407	503
1363	1500	508
1355	1446	513
1356	1407	518
1383	1410	522
1414	1526	527
1429	1560	531
1413	1481	536
1413	1412	540
1429	1372	545
1406	1512	550
1392	1472	555
1427	1414	560
1461	1347	564
1449	1352	569
1461	1404	573
1462	1413	578
1479	1358	582
1497	1352	587
1494	1393	591
1502	1523	596
1543	1488	601
1563	1424	606
1544	1384	610
1538	1381	615
1518	1400	619
1514	1462	624
1544	1458	629
1553	1509	633
1542	1717	638
1555	1665	643
1563	1566	648
1548	1469	652
1515	1472	657
1516	1732	661
1518	1728	666
1504	1572	670
1498	1462	675
1505	1408	679
1499	1395	685
1511	1454	689
1532	1480	694
1537	1448	698
1535	1490	703
1530	1497	708
1506	1511	712
1495	1557	717
1547	1614	721
1579	1540	727
1548	1471	731
1505	1464	736
1494	1456	740
1472	1554	745
1521	1623	749
1558	1480	754
1567	1380	758
1552	1336	763
1526	1472	768
1516	1646	773
1519	1567	777
1523	1425	782
1525	1347	787
1516	1323	791
1552	1354	796
1590	1340	800
1599	1269	805
1582	1262	809
1530	1271	815
1468	1338	819
1445	1360	824
1482	1324	828
1507	1303	833
1496	1358	837
1466	1481	842
1476	1442	846
1501	1394	851
1528	1357	856
1535	1366	861
1536	1421	866
1520	1506	870
1505	1485	875
1511	1469	879
1510	1429	884
1473	1521	888
1457	1593	893
1490	1475	898
1532	1411	903
1550	1382	907
1554	1408	912
1552	1527	916
1517	1518	921
1502	1466	925
1511	1447	930
1529	1463	934
1538	1524	940
1555	1570	945
1575	1565	949
1577	1554	954
1558	1564	958
1543	1632	963
1543	1791	967
1548	1767	972
1551	1668	976
1557	1600	982
1546	1573	986
1511	1584	991
1516	1646	995
1554	1660	1000
1604	1608	1004
1654	1599	1009
1676	1596	1014
1677	1611	1018
1673	1680	1024
1676	1758	1028
1665	1730	1033
1644	1709	1038
1621	1754	1042
1582	1782	1047
1533	1737	1051
1491	1639	1056
1489	1598	1060
1510	1580	1065
1529	1587	1071
1545	1612	1075
1554	1647	1080
1541	1652	1084
1530	1653	1089
1537	1685	1093
1522	1820	1098
1510	1812	1103
1503	1734	1107
1507	1682	1113
1494	1643	1117
1463	1697	1122
1461	1737	1127
1468	1694	1131
1468	1649	1136
1461	1625	1140
1458	1642	1145
1464	1809	1149
1452	1829	1155
1436	1689	1160
1434	1622	1164
1452	1600	1169
1482	1674	1173
1441	1770	1178
1382	1666	1182
1376	1609	1187
1400	1585	1192
1417	1583	1197
1414	1598	1202
1412	1624	1206
1392	1639	1211
1387	1653	1216
1397	1657	1220
1417	1673	1225
1446	1722	1229
1437	1776	1234
1461	1768	1239
1494	1781	1244
1501	1712	1249
1536	1753	1253
1501	1701	1258
1470	1645	1262
1453	1635	1267
1481	1623	1271
1504	1698	1276
1490	1692	1282
1392	1603	1286
1378	1557	1291
1436	1565	1295
1523	1651	1300
1549	1809	1305
1556	1782	1309
1595	1653	1314
1632	1584	1318
1639	1603	1324
1606	1777	1328
1557	1713	1333
1490	1555	1338
1429	1461	1342
1398	1392	1347
1455	1397	1351
1487	1450	1356
1512	1505	1360
1551	1526	1366
1564	1575	1371
1597	1549	1375
1580	1570	1380
1594	1554	1384
1586	1614	1389
1578	1564	1394
1502	1549	1398
1452	1581	1403
1416	1612	1408
1456	1633	1413
1633	1608	1417
1686	1587	1422
1660	1628	1427
1590	1614	1431
1558	1587	1436
1564	1627	1440
1471	1544	1445
1431	1484	1449
1437	1482	1455
1486	1485	1460
1530	1512	1464
1585	1615	1469
1626	1665	1473
1617	1671	1478
1587	1607	1483
1538	1589	1487
1516	1608	1492
1514	1683	1497
1519	1782	1502
1532	1760	1506
1515	1702	1511
1497	1696	1516
1525	1724	1520
1571	1715	1525
1528	1685	1529
1536	1642	1534
1551	1611	1540
1592	1622	1544
1604	1753	1549
1564	1670	1553
1538	1649	1558
1508	1646	1562
1469	1590	1567
1449	1608	1572
1436	1636	1576
1473	1698	1582
1567	1588	1586
1588	1525	1591
1565	1625	1595
1558	1554	1600
1511	1549	1605
1458	1446	1609
1429	1445	1614
1438	1472	1618
1483	1544	1624
1486	1586	1629
1455	1559	1633
1438	1507	1638
1485	1483	1642
1521	1541	1647
1529	1577	1651
1544	1616	1656
1511	1521	1661
1447	1477	1666
1400	1566	1671
1398	1496	1675
1406	1421	1680
1428	1422	1684
1464	1492	1689
1469	1461	1694
1497	1485	1698
1532	1466	1703
1562	1446	1708
1574	1482	1713
1584	1408	1718
1594	1386	1722
1588	1382	1727
1582	1340	1731
1581	1314	1736
1578	1322	1740
1560	1356	1745
1549	1371	1751
1554	1373	1755
1550	1370	1760
1546	1368	1764
1553	1463	1769
1548	1479	1773
1520	1409	1778
1491	1398	1783
1483	1368	1787
1502	1362	1793
1515	1334	1797
1512	1325	1802
1491	1330	1807
1462	1351	1811
1439	1369	1816
1452	1400	1820
1477	1425	1825
1499	1437	1829
1496	1437	1835
1485	1444	1840
1465	1430	1844
1449	1408	1849
1441	1410	1853
1435	1390	1858
1422	1349	1862
1405	1327	1867
1382	1336	1872
1373	1472	1876
1360	1492	1882
1341	1433	1886
1347	1331	1891
1328	1292	1896
1315	1333	1900
1310	1428	1905
1320	1337	1909
1314	1269	1914
1300	1241	1918
1277	1256	1924
1257	1376	1929
1275	1361	1933
1293	1304	1938
1290	1261	1942
1269	1273	1947
1247	1436	1951
1248	1358	1956
1257	1297	1961
1280	1270	1966
1293	1276	1971
1330	1428	1975
1369	1406	1980
1362	1332	1985
1344	1285	1989
1328	1287	1994
1330	1460	1998
1362	1490	2003
1377	1356	2008
1403	1279	2013
1411	1257	2018
1390	1302	2022
1421	1479	2027
1458	1370	2031
1469	1296	2036
1461	1289	2040
1440	1406	2045
1422	1387	2051
1427	1334	2055
1432	1328	2060
1426	1354	2064
1414	1355	2069
1419	1291	2074
1439	1248	2078
1468	1214	2083
1468	1243	2087
1481	1376	2093
1514	1306	2097
1540	1244	2102
1550	1200	2107
1511	1228	2111
1505	1319	2116
1526	1356	2120
1527	1252	2125
1504	1221	2129
1433	1201	2135
1381	1217	2140
1421	1245	2144
1469	1266	2149
1501	1324	2153
1529	1361	2158
1495	1378	2163
1460	1495	2167
1443	1497	2172
1482	1350	2177
1510	1291	2182
1528	1317	2186
1536	1470	2191
1553	1505	2196
1534	1381	2200
1539	1292	2205
1537	1298	2209
1529	1523	2214
1529	1483	2220
1527	1316	2224
1535	1234	2229
1524	1199	2233
1484	1215	2238
1457	1266	2242
1466	1287	2247
1489	1275	2252
1503	1291	2256
1530	1321	2262
1592	1399	2266
1631	1438	2271
1610	1416	2275
1573	1422	2280
1517	1435	2285
1450	1488	2289
1428	1522	2294
1447	1585	2298
1465	1548	2304
1467	1478	2309
1480	1565	2313
1469	1565	2318
1462	1449	2322
1480	1404	2327
1511	1392	2331
1546	1440	2336
1555	1504	2341
1534	1515	2345
1518	1492	2351
1525	1446	2355
1533	1451	2360
1533	1496	2364
1545	1576	2369
1548	1530	2374
1541	1487	2378
1546	1473	2383
1571	1479	2387
1608	1508	2393
1621	1552	2398
1613	1572	2402
1599	1544	2407
1596	1539	2411
1588	1557	2416
1582	1578	2420
1548	1588	2425
1546	1597	2430
1555	1610	2435
1535	1645	2440
1535	1804	2444
1537	1774	2449
1531	1640	2453
1521	1568	2458
1510	1531	2463
1479	1536	2467
1453	1597	2472
1460	1600	2477
1478	1532	2482
1485	1506	2487
1508	1513	2491
1510	1537	2496
1502	1582	2500
1485	1573	2505
1478	1512	2509
1467	1494	2514
1447	1499	2520
1457	1519	2524
1473	1542	2529
1479	1546	2533
1476	1545	2538
1466	1552	2542
1454	1569	2547
1448	1595	2552
1409	1602	2556
1404	1595	2562
1423	1594	2566
1451	1612	2571
1479	1651	2576
1504	1661	2580
1489	1634	2585
1460	1619	2589
1467	1667	2594
1496	1703	2598
1457	1655	2604
1400	1600	2609
1383	1580	2613
1389	1678	2618
1381	1735	2622
1364	1644	2627
1347	1566	2631
1369	1503	2636
1454	1531	2641
1571	1627	2646
1706	1694	2651
1687	1594	2655
1650	1581	2660
1609	1762	2665
1616	1716	2669
1572	1564	2674
1590	1435	2678
1649	1440	2683
1590	1585	2688
1522	1598	2693
1479	1426	2698
1486	1323	2702
1469	1286	2707
1460	1337	2711
1462	1583	2716
1438	1483	2720
1487	1393	2725
1599	1358	2731
1643	1365	2735
1610	1518	2740
1525	1654	2744
1489	1599	2749
1463	1492	2754
1447	1531	2758
1480	1605	2763
1519	1638	2767
1538	1541	2772
1533	1448	2777
1558	1397	2782
1648	1394	2787
1691	1418	2791
1626	1465	2796
1565	1511	2800
1455	1547	2805
1457	1564	2809
1552	1588	2814
1644	1641	2820
1605	1644	2824
1536	1690	2829
1529	1672	2833
1533	1620	2838
1515	1652	2843
1563	1736	2847
1561	1656	2852
1494	1643	2856
1410	1566	2862
1408	1554	2866
1499	1617	2871
1595	1683	2876
1630	1662	2880
1614	1602	2885
1560	1559	2889
1557	1624	2894
1584	1654	2898
1523	1619	2904
1453	1555	2909
1423	1543	2913
1418	1652	2918
1458	1719	2922
1532	1703	2927
1568	1658	2932
1531	1683	2936
1491	1595	2941
1521	1625	2946
1602	1681	2951
1572	1657	2955
1498	1585	2960
1468	1621	2965
1494	1547	2969
1548	1514	2974
1587	1501	2978
1581	1526	2983
1558	1560	2988
1519	1567	2993
1478	1532	2998
1438	1536	3002
1437	1607	3007
1449	1619	3011
1459	1648	3016
1462	1586	3021
1465	1582	3025
1477	1544	3031
1491	1538	3035
1503	1591	3040
1541	1598	3044
1579	1580	3049
1616	1642	3054
1642	1606	3058
1654	1505	3063
1661	1473	3067
1670	1472	3073
1680	1487	3077
1695	1474	3082
1691	1465	3087
1690	1473	3091
1670	1562	3096
1620	1535	3100
1583	1493	3105
1567	1434	3110
1537	1398	3115
1530	1390	3120
1537	1408	3124
1532	1448	3129
1523	1431	3133
1510	1414	3138
1483	1409	3143
1463	1426	3147
1460	1532	3152
1472	1506	3156
1443	1468	3162
1420	1395	3166
1389	1361	3171
1362	1361	3176
1374	1380	3180
1406	1404	3185
1409	1396	3189
1400	1399	3194
1387	1433	3200
1365	1460	3204
1337	1483	3209
1312	1480	3213
1317	1480	3218
1334	1445	3222
1363	1461	3227
1344	1418	3232
1303	1370	3236
1279	1346	3241
1272	1385	3246
1265	1466	3251
1243	1442	3255
1224	1353	3260
1201	1325	3265
1212	1322	3269
1232	1338	3274
1277	1364	3278
1279	1378	3283
1258	1418	3289
1255	1351	3293
1261	1285	3298
1277	1264	3302
1280	1339	3307
1281	1480	3311
1335	1434	3316
1375	1369	3321
1375	1314	3325
1357	1306	3331
1340	1362	3335
1375	1455	3340
1404	1445	3344
1418	1333	3349
1388	1287	3354
1363	1301	3358
1368	1472	3363
1397	1413	3367
1429	1323	3373
1435	1262	3378
1428	1295	3382
1463	1350	3387
1476	1348	3391
1418	1275	3396
1403	1250	3400
1444	1270	3405
1473	1485	3410
1503	1445	3415
1507	1291	3420
1496	1217	3424
1471	1209	3429
1503	1310	3433
1579	1309	3438
1629	1259	3443
1597	1215	3447
1538	1222	3452
1510	1360	3457
1515	1453	3462
1530	1311	3467
1528	1238	3471
1522	1207	3476
1507	1233	3480
1500	1334	3485
1525	1270	3489
1523	1235	3494
1539	1245	3500
1563	1357	3504
1583	1486	3509
1584	1451	3513
1578	1282	3518
1553	1203	3522
1522	1193	3527
1469	1327	3532
1433	1308	3536
1434	1250	3542
1489	1194	3546
1530	1184	3551
1526	1198	3556
1499	1244	3560
1493	1309	3565
1505	1337	3569
1514	1278	3574
1517	1344	3578
1523	1467	3584
1546	1387	3589
1540	1316	3593
1512	1266	3598
1486	1243	3602
1472	1317	3607
1470	1339	3612
1468	1315	3616
1489	1300	3621
1512	1301	3625
1551	1316	3631
1573	1336	3635
1541	1368	3640
1516	1385	3645
1516	1379	3649
1535	1393	3654
1547	1412	3658
1546	1444	3663
1529	1497	3667
1520	1530	3673
1517	1577	3678
1522	1553	3682
1531	1553	3687
1547	1505	3691
1591	1464	3696
1611	1509	3701
1618	1594	3705
1638	1593	3710
1633	1487	3715
1616	1436	3720
1624	1421	3724
1623	1488	3729
1601	1471	3734
1586	1447	3738
1583	1413	3743
1569	1415	3747
1560	1444	3752
1553	1496	3757
1555	1476	3762
1561	1457	3767
1548	1457	3771
1526	1552	3776
1517	1636	3780
1502	1525	3785
1488	1454	3790
1482	1423	3794
1466	1418	3800
1455	1462	3804
1494	1494	3809
1518	1494	3813
1503	1475	3818
1487	1462	3823
1470	1470	3827
1503	1527	3832
1521	1587	3836
1516	1644	3842
1502	1606	3846
1484	1661	3851
1479	1540	3856
1449	1468	3860
1421	1431	3865
1409	1401	3869
1450	1390	3874
1455	1399	3879
1473	1422	3884
1487	1463	3889
1506	1511	3893
1557	1555	3898
1633	1579	3902
1646	1624	3907
1579	1544	3912
1492	1468	3916
1455	1460	3921
1477	1533	3926
1464	1539	3931
1443	1492	3936
1429	1464	3940
1451	1533	3945
1514	1499	3949
1566	1492	3954
1574	1534	3958
1465	1582	3963
1355	1686	3969
1329	1673	3973
1418	1628	3978
1534	1516	3982
1576	1507	3987
1590	1513	3991
1573	1494	3996
1578	1425	4001
1625	1345	4005
1624	1366	4011
1587	1328	4015
1543	1378	4020
1508	1430	4025
1512	1411	4029
1523	1356	4034
1502	1362	4038
1477	1379	4043
1540	1414	4047
1611	1456	4052
1621	1495	4058
1556	1587	4062
1542	1668	4067
1532	1646	4071
1544	1622	4076
1581	1651	4080
1547	1685	4085
1450	1766	4090
1450	1728	4094
1480	1649	4100
1578	1596	4104
1648	1613	4109
1652	1732	4114
1635	1626	4118
1532	1541	4123
1497	1521	4127
1545	1505	4132
1532	1621	4136
1511	1710	4142
1503	1614	4147
1429	1496	4151
1444	1453	4156
1506	1494	4160
1551	1497	4165
1536	1534	4169
1506	1623	4174
1517	1703	4179
1543	1648	4184
1497	1657	4189
1521	1558	4193
1533	1538	4198
1512	1542	4203
1563	1597	4207
1592	1608	4212
1576	1584	4216
1595	1517	4221
1567	1499	4226
1521	1513	4231
1434	1602	4236
1396	1670	4240
1445	1662	4245
1469	1660	4249
1437	1615	4254
1432	1621	4258
1417	1673	4263
1409	1713	4269
1474	1769	4273
1510	1760	4278
1527	1677	4282
1486	1695	4287
1429	1674	4292
1380	1646	4296
1404	1630	4301
1439	1629	4305
1426	1578	4311
1452	1584	4315
1494	1554	4320
1539	1583	4325
1547	1557	4329
1566	1557	4334
1572	1563	4338
1571	1558	4343
1584	1507	4347
1591	1496	4353
1600	1518	4358
1618	1563	4362
1611	1567	4367
1590	1528	4371
1574	1532	4376
1563	1557	4381
1542	1584	4385
1509	1597	4390
1484	1624	4395
1463	1611	4400
1453	1628	4404
1443	1621	4409
1466	1617	4414
1493	1599	4418
1479	1594	4423
1463	1635	4427
1445	1618	4432
1452	1578	4438
1514	1623	4442
1504	1578	4447
1457	1496	4451
1409	1459	4456
1380	1450	4460
1366	1476	4465
1367	1539	4470
1356	1476	4474
1366	1439	4480
1390	1425	4484
1397	1440	4489
1415	1463	4493
1461	1483	4498
1500	1477	4503
1490	1488	4507
1448	1556	4512
1381	1522	4516
1335	1480	4521
1326	1400	4527
1345	1363	4531
1384	1358	4536
1386	1465	4540
1392	1470	4545
1374	1456	4549
1357	1393	4554
1352	1335	4559
1360	1429	4563
1379	1550	4569
1339	1365	4573
1316	1292	4578
1314	1281	4582
1323	1343	4587
1330	1277	4592
1361	1258	4596
1394	1256	4601
1419	1282	4605
1427	1412	4611
1463	1371	4616
1493	1354	4620
1499	1337	4625
1508	1384	4629
1493	1452	4634
1433	1396	4638
1405	1356	4643
1396	1340	4648
1383	1399	4653
1389	1560	4658
1437	1529	4662
1477	1405	4667
1498	1403	4671
1505	1400	4676
1481	1290	4681
1470	1235	4685
1458	1281	4690
1448	1290	4695
1406	1205	4700
1414	1161	4705
1450	1144	4709
1496	1154	4714
1543	1309	4718
1546	1446	4723
1536	1274	4727
1541	1198	4732
1559	1192	4738
1569	1203	4742
1564	1318	4747
1534	1368	4751
1514	1310	4756
1499	1254	4761
1508	1302	4765
1525	1256	4770
1557	1202	4774
1606	1269	4780
1647	1470	4784
1618	1374	4789
1569	1257	4794
1514	1194	4798
1459	1165	4803
1408	1254	4807
1429	1429	4812
1473	1242	4816
1514	1172	4822
1578	1186	4827
1613	1307	4831
1593	1233	4836
1575	1170	4840
1550	1147	4845
1544	1159	4850
1571	1244	4854
1552	1319	4859
1514	1290	4864
1509	1392	4869
1505	1386	4873
1488	1404	4878
1541	1380	4883
1590	1379	4887
1591	1285	4892
1593	1258	4896
1584	1313	4901
1569	1469	4905
1533	1389	4911
1517	1314	4916
1523	1292	4920
1510	1305	4925
1498	1339	4929
1520	1361	4934
1569	1388	4939
1605	1427	4943
1631	1484	4948
1628	1500	4953
1615	1481	4958
1613	1496	4962
1615	1588	4967
1610	1676	4972
1604	1611	4976
1594	1594	4981
1572	1545	4985
1553	1480	4990
1540	1490	4995
1538	1491	5000
1544	1485	5005
1561	1510	5009
1564	1485	5014
1540	1451	5018
1515	1456	5023
1464	1470	5028
1417	1487	5032
1433	1505	5038
1469	1519	5042
1490	1526	5047
1495	1535	5051
1501	1559	5056
1498	1614	5061
1489	1624	5065
1486	1595	5070
1475	1597	5074
1474	1679	5080
1493	1694	5085
1522	1641	5089
1528	1595	5094
1505	1536	5098
1484	1528	5103
1486	1585	5107
1479	1567	5112
1460	1517	5117
1456	1507	5122
1483	1513	5127
1502	1558	5131
1502	1607	5136
1473	1570	5140
1440	1538	5145
1427	1516	5150
1439	1528	5154
1434	1577	5159
1439	1585	5164
1483	1560	5169
1575	1567	5174
1600	1641	5178
1581	1620	5183
1548	1601	5187
1481	1542	5192
1423	1501	5196
1432	1557	5201
1452	1699	5207
1493	1590	5211
1487	1491	5216
1502	1436	5220
1547	1460	5225
1582	1582	5229
1665	1684	5234
1720	1611	5239
1655	1547	5243
1602	1464	5249
1581	1469	5253
1573	1492	5258
1551	1468	5263
1474	1622	5267
1419	1677	5272
1409	1533	5276
1447	1469	5281
1467	1455	5285
1507	1505	5291
1523	1562	5296
1528	1492	5300
1566	1431	5305
1601	1460	5309
1601	1545	5314
1621	1649	5318
1616	1504	5323
1631	1437	5328
1560	1395	5332
1494	1452	5338
1479	1637	5342
1529	1593	5347
1588	1514	5352
1560	1424	5356
1605	1429	5361
1629	1477	5365
1685	1589	5370
1699	1648	5374
1579	1570	5380
1552	1501	5385
1622	1508	5389
1695	1583	5394
1697	1665	5398
1655	1649	5403
1638	1663	5408
1592	1599	5412
1549	1534	5417
1553	1506	5422
1608	1500	5427
1637	1611	5431
1649	1580	5436
1671	1493	5441
1670	1560	5445
1578	1669	5450
1518	1754	5454
1500	1737	5459
1534	1620	5464
1554	1575	5469
1533	1595	5474
1511	1745	5478
1547	1689	5483
1576	1535	5487
1551	1516	5492
1473	1631	5497
1495	1703	5501
1570	1663	5507
1601	1625	5511
1592	1598	5516
1587	1749	5520
1604	1792	5525
1578	1692	5530
1580	1671	5534
1621	1605	5539
1619	1593	5543
1617	1655	5549
1624	1808	5553
1704	1672	5558
1764	1621	5563
1675	1643	5567
1585	1747	5572
1536	1816	5576
1514	1713	5581
1487	1724	5586
1444	1689	5591
1410	1714	5596
1375	1774	5600
1357	1731	5605
1355	1687	5609
1360	1641	5614
1360	1633	5619
1421	1655	5623
1432	1710	5628
1412	1707	5633
1378	1700	5638
1332	1817	5642
1304	1736	5647
1299	1701	5652
1308	1688	5656
1346	1672	5661
1381	1696	5665
1415	1691	5670
1447	1714	5676
1460	1662	5680
1452	1630	5685
1455	1606	5689
1476	1603	5694
1459	1624	5698
1434	1614	5703
1432	1608	5708
1439	1546	5712
1469	1556	5718
1510	1510	5722
1537	1504	5727
1541	1512	5731
1532	1485	5736
1514	1475	5741
1501	1474	5745
1513	1500	5750
1538	1596	5754
1527	1513	5760
1498	1470	5765
1470	1393	5769
1458	1363	5774
1477	1369	5778
1523	1403	5783
1533	1423	5787
1543	1422	5792
1551	1376	5797
1553	1358	5801
1580	1404	5807
1606	1377	5811
1589	1365	5816
1565	1431	5820
1540	1595	5825
1522	1492	5830
1518	1385	5834
1530	1309	5839
1540	1275	5843
1548	1286	5849
1586	1385	5854
1636	1421	5858
1636	1325	5863
1587	1265	5867
1529	1248	5872
1477	1273	5876
1441	1372	5881
1412	1356	5886
1394	1289	5891
1379	1270	5896
1353	1269	5900
1405	1322	5905
1450	1374	5909
1467	1309	5914
1476	1301	5919
1484	1486	5923
1512	1433	5928
1504	1326	5933
1468	1238	5938
1451	1248	5943
1443	1375	5947
1473	1330	5952
1473	1235	5956
1443	1170	5961
1400	1174	5965
1382	1297	5970
1409	1398	5976
1458	1217	5980
1476	1127	5985
1454	1103	5989
1433	1138	5994
1406	1194	5998
1443	1199	6003
1484	1154	6008
1520	1143	6012
1536	1157	6018
1571	1252	6022
1597	1349	6027
1619	1312	6032
1612	1232	6036
1540	1265	6041
1468	1393	6045
1421	1293	6050
1422	1219	6054
1454	1185	6060
1502	1239	6065
1527	1399	6069
1544	1345	6074
1559	1212	6078
1576	1160	6083
1621	1173	6088
1696	1348	6092
1707	1422	6097
1662	1251	6102
1627	1153	6107
1557	1122	6111
1516	1125	6116
1491	1153	6121
1489	1161	6125
1519	1184	6130
1538	1222	6134
1550	1283	6139
1582	1279	6144
1644	1292	6149
1651	1409	6154
1591	1452	6158
1535	1301	6163
1498	1224	6167
1484	1201	6172
1468	1251	6177
1444	1314	6181
1442	1259	6187
1465	1217	6191
1483	1209	6196
1513	1291	6200
1519	1375	6205
1517	1274	6210
1520	1247	6214
1521	1236	6219
1528	1265	6223
1587	1316	6228
1583	1321	6233
1543	1340	6238
1517	1349	6243
1487	1359	6247
1460	1389	6252
1466	1423	6256
1464	1426	6261
1468	1441	6266
1492	1488	6270
1459	1618	6276
1451	1620	6280
1453	1438	6285
1468	1368	6289
1422	1350	6294
1423	1365	6299
1458	1475	6303
1496	1448	6308
1506	1398	6312
1505	1365	6318
1501	1362	6323
1499	1400	6327
1511	1495	6332
1526	1490	6336
1532	1453	6341
1546	1418	6345
1548	1425	6350
1517	1498	6355
1512	1502	6360
1522	1458	6365
1527	1445	6369
1517	1439	6374
1495	1459	6378
1470	1483	6383
1472	1557	6388
1482	1557	6392
1489	1520	6397
1501	1507	6402
1524	1525	6407
1562	1591	6412
1586	1696	6416
1632	1619	6421
1601	1609	6425
1582	1591	6430
1558	1521	6434
1530	1526	6439
1504	1529	6445
1485	1462	6449
1461	1558	6454
1450	1501	6458
1443	1418	6463
1491	1373	6467
1541	1412	6472
1603	1421	6477
1674	1351	6481
1676	1322	6487
1617	1489	6491
1571	1509	6496
1559	1368	6501
1573	1316	6505
1553	1356	6510
1570	1485	6514
1514	1500	6519
1447	1419	6523
1486	1391	6529
1512	1404	6534
1502	1438	6538
1438	1489	6543
1441	1553	6547
1509	1582	6552
1573	1683	6556
1601	1642	6561
1554	1636	6566
1466	1675	6571
1465	1695	6576
1444	1660	6580
1490	1612	6585
1529	1619	6590
1490	1634	6594
1460	1553	6599
1444	1537	6603
1549	1535	6608
1655	1543	6612
1628	1629	6618
1588	1644	6623
1531	1555	6627
1493	1494	6632
1514	1396	6636
1557	1405	6641
1540	1472	6645
1515	1552	6650
1532	1595	6656
1563	1599	6660
1563	1564	6665
1565	1685	6669
1539	1641	6674
1469	1581	6679
1469	1564	6683
1593	1560	6688
1690	1668	6692
1660	1801	6697
1606	1742	6702
1552	1669	6707
1552	1692	6712
1543	1689	6716
1557	1753	6721
1612	1762	6725
1522	1750	6730
1439	1670	6734
1408	1631	6739
1403	1746	6745
1446	1747	6749
1452	1712	6754
1490	1696	6758
1514	1648	6763
1550	1678	6768
1523	1849	6772
1564	1897	6777
1598	1807	6781
1564	1696	6787
1519	1682	6791
1474	1702	6796
1456	1727	6801
1429	1738	6805
1471	1763	6810
1552	1753	6814
1542	1832	6819
1462	1866	6823
1414	1765	6829
1354	1719	6834
1344	1769	6838
1400	1834	6843
1456	1820	6847
1410	1770	6852
1347	1757	6857
1323	1697	6861
1346	1694	6866
1373	1729	6871
1351	1785	6876
1370	1787	6880
1364	1754	6885
1353	1771	6890
1367	1832	6894
1406	1799	6899
1487	1748	6903
1492	1670	6908
1461	1655	6913
1425	1653	6918
1411	1667	6923
1425	1694	6927
1445	1716	6932
1446	1694	6936
1437	1680	6941
1423	1677	6946
1422	1687	6950
1479	1687	6956
1504	1688	6960
1495	1701	6965
1499	1691	6969
1492	1719	6974
1459	1670	6979
1451	1662	6983
1461	1641	6988
1465	1612	6992
1474	1602	6998
1485	1597	7002
1486	1644	7007
1487	1607	7012
1529	1580	7016
1546	1568	7021
1534	1578	7025
1556	1674	7030
1549	1559	7035
1502	1525	7040
1471	1441	7045
1470	1410	7049
1470	1407	7054
1472	1426	7058
1479	1443	7063
1498	1453	7068
1500	1484	7072
1503	1570	7077
1537	1523	7081
1584	1485	7087
1559	1481	7092
1503	1553	7096
1468	1489	7101
1425	1429	7105
1432	1374	7110
1441	1351	7114
1420	1432	7119
1414	1502	7124
1420	1374	7129
1447	1315	7134
1472	1302	7138
1489	1313	7143
1493	1392	7147
1507	1447	7152
1475	1385	7157
1417	1354	7161
1380	1361	7166
1384	1508	7171
1368	1393	7176
1395	1332	7181
1392	1316	7185
1394	1377	7190
1403	1457	7194
1422	1436	7199
1429	1372	7203
1427	1329	7208
1435	1371	7214
1461	1497	7218
1472	1533	7223
1526	1343	7227
1503	1259	7232
1466	1246	7236
1467	1387	7241
1467	1388	7246
1470	1252	7250
1485	1191	7256
1483	1177	7260
1480	1204	7265
1517	1301	7270
1529	1321	7274
1521	1230	7279
1508	1215	7283
1468	1365	7288
1415	1316	7292
1404	1238	7298
1428	1201	7303
1420	1196	7307
1391	1307	7312
1411	1442	7316
1440	1303	7321
1457	1244	7326
1469	1227	7330
1486	1262	7335
1496	1381	7340
1496	1509	7345
1484	1398	7349
1452	1367	7354
1415	1405	7359
1423	1297	7363
1425	1236	7368
1431	1204	7372
1437	1183	7377
1428	1199	7382
1437	1244	7387
1469	1320	7392
1468	1343	7396
1445	1384	7401
1445	1408	7405
1461	1426	7410
1451	1325	7415
1426	1253	7419
1427	1225	7425
1418	1228	7429
1405	1300	7434
1419	1386	7438
1410	1346	7443
1395	1304	7448
1401	1301	7452
1435	1367	7457
1421	1541	7461
1434	1532	7467
1428	1385	7471
1413	1310	7476
1400	1291	7481
1387	1289	7485
1367	1301	7490
1358	1337	7494
1377	1373	7499
1405	1378	7504
1427	1508	7508
1449	1646	7514
1488	1542	7518
1506	1420	7523
1499	1359	7527
1482	1381	7532
1469	1388	7537
1464	1385	7541
1444	1375	7546
1445	1352	7550
1448	1349	7556
1460	1369	7561
1448	1407	7565
1429	1449	7570
1423	1454	7574
1452	1465	7579
1474	1483	7583
1490	1508	7588
1466	1530	7593
1471	1542	7598
1490	1551	7603
1498	1568	7607
1500	1658	7612
1483	1739	7616
1476	1629	7621
1485	1544	7626
1489	1498	7630
1483	1490	7635
1479	1539	7640
1506	1625	7645
1533	1653	7650
1523	1525	7654
1508	1494	7659
1488	1483	7663
1468	1496	7668
1475	1521	7672
1490	1557	7677
1500	1597	7683
1488	1620	7687
1476	1653	7692
1480	1733	7696
1470	1747	7701
1466	1700	7705
1478	1657	7710
1476	1657	7715
1453	1682	7719
1474	1638	7725
1499	1611	7729
1527	1630	7734
1541	1691	7739
1523	1724	7743
1478	1695	7748
1441	1619	7752
1440	1564	7757
1452	1544	7761
1452	1555	7767
1498	1566	7772
1554	1627	7776
1595	1621	7781
1589	1538	7785
1625	1564	7790
1622	1568	7794
1597	1574	7799
1579	1519	7804
1540	1504	7809
1469	1510	7814
1452	1566	7818
1468	1422	7823
1505	1347	7828
1528	1358	7832
1487	1413	7837
1439	1407	7841
1403	1467	7846
1346	1533	7851
1380	1610	7856
1459	1670	7861
1532	1513	7865
1535	1391	7870
1509	1401	7874
1399	1507	7879
1371	1608	7884
1401	1558	7888
1370	1407	7894
1402	1374	7898
1447	1466	7903
1480	1639	7907
1468	1673	7912
1423	1594	7917
1460	1499	7921
1526	1439	7926
1547	1533	7930
1499	1731	7936
1398	1520	7940
1351	1437	7945
1331	1522	7950
1349	1510	7954
1408	1443	7959
1478	1470	7963
1473	1514	7968
1408	1596	7973
1411	1594	7977
1450	1597	7983
1531	1664	7987
1554	1707	7992
1581	1665	7996
1634	1647	8001
1660	1671	8006
1626	1669	8010
1607	1751	8015
1620	1782	8019
1571	1591	8025
1577	1576	8029
1601	1748	8034
1523	1710	8039
1438	1636	8043
1401	1621	8048
1432	1577	8052
1468	1632	8057
1462	1717	8062
1441	1731	8067
1534	1695	8072
1653	1658	8076
1649	1709	8081
1641	1805	8085
1626	1792	8090
1583	1756	8095
1502	1818	8099
1476	1777	8104
1527	1777	8109
1573	1720	8114
1551	1715	8118
1535	1717	8123
1529	1762	8128
1570	1895	8132
1643	1797	8137
1684	1749	8141
1624	1767	8146
1549	1739	8152
1481	1798	8156
1437	1864	8161
1420	1850	8165
1407	1817	8170
1427	1841	8174
1478	1849	8179
1435	1909	8184
1366	1849	8188
1312	1803	8194
1284	1815	8198
1261	1788	8203
1268	1780	8207
1298	1810	8212
1331	1786	8217
1355	1781	8221
1375	1772	8226
1409	1776	8230
1467	1779	8236
1505	1807	8241
1501	1796	8245
1497	1763	8250
1501	1756	8254
1501	1771	8259
1473	1776	8263
1466	1789	8268
1459	1799	8273
1444	1720	8278
1427	1679	8283
1410	1672	8287
1411	1664	8292
1424	1661	8296
1429	1657	8301
1396	1663	8306
1409	1652	8310
1466	1652	8315
1500	1667	8320
1533	1638	8325
1555	1701	8330
1604	1681	8334
1619	1652	8339
1561	1605	8343
1507	1532	8348
1512	1476	8352
1543	1455	8357
1577	1497	8363
1594	1536	8367
1596	1496	8372
1588	1454	8376
1552	1446	8381
1548	1484	8386
1580	1526	8390
1573	1582	8395
1514	1512	8399
1430	1391	8404
1356	1331	8409
1303	1325	8414
1289	1422	8419
1277	1354	8423
1289	1331	8428
1312	1328	8432
1330	1382	8437
1338	1514	8441
1338	1426	8446
1299	1325	8452
1282	1332	8456
1298	1419	8461
1324	1336	8465
1332	1281	8470
1319	1254	8475
1304	1316	8479
1289	1475	8484
1267	1365	8488
1280	1275	8494
1288	1244	8498
1252	1521	8503
1278	1513	8508
1302	1286	8512
1309	1196	8517
1334	1131	8521
1348	1117	8526
1341	1166	8530
1353	1246	8536
1370	1181	8541
1397	1163	8545
1416	1166	8550
1421	1211	8554
1449	1292	8559
1485	1299	8564
1459	1257	8568
1452	1288	8573
1438	1430	8578
1413	1376	8583
1441	1290	8587
1473	1244	8592
1493	1244	8597
1525	1334	8601
1550	1411	8606
1556	1378	8610
1517	1284	8615
1506	1210	8620
1489	1278	8625
1481	1398	8630
1465	1304	8634
1458	1283	8639
1455	1219	8643
1447	1155	8648
1427	1148	8653
1422	1187	8657
1476	1285	8663
1533	1362	8667
1536	1274	8672
1527	1212	8676
1466	1234	8681
1441	1210	8686
1435	1193	8690
1436	1172	8695
1437	1182	8699
1427	1207	8705
1433	1263	8710
1431	1278	8714
1430	1357	8719
1447	1364	8723
1467	1365	8728
1492	1343	8732
1498	1296	8737
1523	1271	8742
1517	1230	8747
1486	1272	8752
1451	1258	8756
1412	1227	8761
1419	1212	8765
1435	1218	8770
1454	1240	8775
1487	1321	8779
1512	1343	8784
1502	1372	8788
1504	1392	8794
1497	1342	8799
1478	1287	8803
1469	1317	8808
1444	1393	8812
1419	1407	8817
1425	1351	8821
1454	1316	8826
1475	1309	8832
1513	1325	8836
1526	1342	8841
1510	1368	8845
1475	1394	8850
1455	1416	8854
1456	1443	8859
1453	1483	8864
1436	1494	8868
1440	1495	8873
1474	1516	8878
1526	1533	8883
1568	1610	8888
1563	1592	8892
1575	1613	8897
1610	1489	8901
1586	1454	8906
1529	1470	8910
1528	1487	8915
1535	1510	8921
1510	1499	8925
1491	1491	8930
1467	1574	8934
1447	1600	8939
1441	1531	8943
1450	1506	8948
1519	1529	8953
1564	1594	8957
1546	1651	8963
1504	1633	8967
1474	1511	8972
1450	1433	8977
1581	1447	8981
1654	1495	8986
1587	1513	8990
1489	1422	8995
1434	1427	8999
1395	1628	9005
1408	1654	9010
1433	1496	9014
1487	1463	9019
1516	1522	9023
1459	1557	9028
1434	1491	9033
1370	1358	9037
1325	1290	9042
1354	1310	9047
1413	1453	9052
1420	1518	9056
1483	1389	9061
1594	1338	9066
1590	1371	9070
1551	1530	9075
1468	1667	9079
1392	1565	9084
1475	1442	9089
1614	1437	9094
1515	1491	9099
1415	1669	9103
1367	1551	9108
1396	1442	9112
1395	1466	9117
1424	1451	9122
1476	1578	9126
1536	1591	9132
1549	1510	9136
1504	1542	9141
1548	1618	9145
1557	1594	9150
1543	1620	9155
1517	1553	9159
1473	1554	9164
1426	1614	9168
1432	1496	9174
1453	1461	9178
1540	1530	9183
1529	1592	9188
1467	1518	9192
1486	1602	9197
1514	1737	9201
1492	1662	9206
1469	1607	9211
1498	1554	9216
1583	1583	9221
1625	1655	9225
1554	1620	9230
1512	1698	9234
1443	1633	9239
1394	1591	9244
1388	1612	9248
1430	1708	9253
1484	1818	9257
1587	1698	9263
1634	1639	9268
1575	1607	9272
1502	1634	9277
1443	1649	9281
1387	1709	9286
1447	1798	9290
1513	1795	9295
1573	1715	9300
1603	1681	9305
1549	1747	9310
1489	1788	9314
1454	1736	9319
1496	1734	9323
1512	1727	9328
1538	1704	9333
1599	1791	9337
1593	1737	9342
1523	1701	9347
1474	1740	9352
1449	1819	9357
1446	1810	9361
1504	1819	9366
1488	1809	9370
1429	1790	9375
1428	1823	9379
1463	1784	9384
1441	1868	9390
1505	1882	9394
1514	1787	9399
1468	1757	9403
1408	1757	9408
1410	1774	9412
1445	1885	9417
1462	1780	9422
1514	1721	9426
1583	1689	9432
1620	1715	9436
1635	1750	9441
1639	1806	9446
1617	1689	9450
1568	1654	9455
1526	1647	9459
1497	1649	9464
1459	1686	9468
1416	1702	9474
1417	1733	9479
1428	1789	9483
1440	1702	9488
1468	1707	9492
1522	1687	9497
1508	1685	9502
1471	1743	9506
1421	1713	9511
1384	1669	9516
1376	1606	9521
1374	1590	9525
1385	1596	9530
1375	1612	9535
1351	1630	9539
1378	1641	9544
1446	1650	9548
1512	1663	9553
1529	1666	9558
1517	1698	9563
1485	1781	9568
1441	1648	9572
1392	1581	9577
1349	1544	9581
1350	1529	9586
1394	1570	9591
1443	1607	9595
1486	1563	9601
1480	1528	9605
1455	1530	9610
1458	1521	9614
1448	1530	9619
1412	1603	9624
1393	1639	9628
1424	1570	9633
1453	1533	9637
1472	1533	9643
1466	1533	9647
1408	1580	9652
1355	1510	9657
1333	1404	9661
1339	1351	9666
1323	1387	9670
1329	1452	9675
1361	1518	9680
1356	1390	9684
1363	1334	9690
1379	1316	9694
1390	1381	9699
1409	1468	9703
1412	1413	9708
1370	1321	9713
1364	1280	9717
1401	1278	9722
1431	1358	9726
1462	1398	9732
1499	1351	9737
1516	1313	9741
1497	1291	9746
1491	1403	9750
1468	1411	9755
1406	1332	9759
1385	1234	9764
1407	1254	9769
1448	1466	9774
1475	1360	9779
1473	1204	9783
1488	1124	9788
1514	1104	9792
1555	1199	9797
1571	1325	9802
1541	1165	9806
1446	1126	9811
1409	1161	9816
1435	1142	9821
1456	1169	9826
1461	1389	9830
1475	1255	9835
1531	1110	9839
1575	1067	9844
1604	1074	9848
1565	1111	9853
1524	1148	9859
1527	1214	9863
1520	1202	9868
1508	1211	9872
1472	1226	9877
1452	1286	9881
1454	1465	9886
1420	1372	9891
1413	1301	9895
1428	1290	9901
1483	1270	9905
1558	1251	9910
1556	1307	9915
1507	1409	9919
1499	1312	9924
1509	1244	9928
1497	1381	9933
1425	1311	9937
1406	1192	9943
1403	1139	9948
1381	1121	9952
1363	1093	9957
1395	1075	9961
1448	1081	9966
1481	1158	9971
1512	1272	9975
1556	1236	9980
1566	1146	9985
1563	1136	9990
1596	1189	9994
1602	1367	9999
1580	1335	10004
1547	1220	10008
1534	1194	10013
1532	1297	10017
1511	1366	10022
1481	1248	10028
1478	1212	10032
1473	1213	10037
1471	1243	10042
1426	1283	10046
1442	1346	10051
1478	1393	10056
1485	1400	10060
1473	1394	10065
1428	1415	10070
1423	1433	10075
1433	1423	10080
1428	1432	10084
1426	1458	10089
1438	1479	10094
1453	1476	10098
1444	1467	10103
1454	1521	10107
1464	1660	10113
1478	1666	10118
1466	1557	10122
1467	1477	10127
1469	1420	10132
1433	1465	10136
1417	1566	10141
1435	1563	10145
1447	1474	10150
1476	1387	10156
1481	1335	10160
1454	1328	10165
1432	1356	10170
1431	1527	10174
1445	1552	10179
1459	1474	10184
1511	1438	10188
1528	1485	10193
1497	1579	10198
1406	1608	10203
1375	1508	10208
1427	1400	10212
1528	1381	10217
1571	1504	10222
1539	1584	10226
1471	1518	10231
1428	1492	10235
1461	1491	10241
1473	1381	10246
1412	1436	10250
1364	1501	10255
1412	1510	10260
1478	1474	10264
1502	1406	10269
1575	1366	10274
1607	1431	10278
1565	1601	10284
1496	1564	10288
1483	1543	10293
1428	1637	10298
1405	1641	10302
1423	1485	10307
1542	1428	10312
1546	1432	10316
1565	1445	10321
1653	1401	10326
1742	1615	10331
1670	1827	10336
1462	1719	10340
1339	1601	10345
1463	1865	10350
1568	2045	10354
1544	1735	10359
1433	1541	10363
1371	1534	10369
1407	1643	10374
1456	1506	10378
1567	1426	10383
1530	1448	10388
1507	1575	10392
1518	1679	10397
1547	1548	10401
1578	1570	10406
1548	1612	10412
1501	1561	10416
1529	1595	10421
1535	1522	10426
1559	1404	10430
1544	1416	10435
1483	1553	10440
1488	1668	10444
1554	1800	10449
1561	1811	10454
1557	1656	10459
1599	1651	10464
1689	1643	10468
1697	1568	10473
1636	1713	10478
1648	1732	10482
1618	1605	10487
1469	1587	10491
1476	1682	10497
1507	1768	10502
1495	1662	10506
1461	1650	10511
1472	1660	10516
1593	1683	10520
1722	1762	10525
1696	1830	10529
1625	1706	10534
1590	1666	10540
1531	1735	10544
1600	1818	10549
1657	1710	10554
1662	1671	10558
1692	1612	10563
1634	1693	10568
1600	1885	10572
1534	1713	10577
1456	1539	10582
1422	1513	10587
1419	1567	10592
1471	1630	10596
1486	1754	10601
1449	1769	10606
1460	1671	10610
1591	1617	10615
1656	1681	10619
1619	1693	10625
1533	1696	10630
1475	1779	10634
1418	1806	10639
1412	1779	10644
1415	1804	10648
1379	1802	10653
1361	1864	10657
1367	1819	10662
1389	1798	10668
1406	1721	10672
1445	1710	10677
1482	1685	10682
1510	1719	10686
1550	1736	10691
1571	1683	10696
1560	1669	10700
1528	1676	10705
1514	1697	10710
1491	1713	10715
1458	1728	10720
1457	1757	10724
1460	1769	10729
1442	1769	10734
1424	1785	10738
1413	1781	10743
1416	1783	10747
1425	1766	10753
1448	1750	10758
1487	1734	10762
1460	1731	10767
1433	1729	10772
1431	1723	10776
1443	1722	10781
1449	1742	10785
1447	1753	10790
1443	1701	10796
1443	1640	10800
1468	1622	10805
1546	1618	10810
1585	1664	10814
1588	1633	10819
1539	1576	10824
1485	1549	10828
1461	1530	10833
1444	1580	10838
1440	1623	10843
1437	1534	10848
1435	1448	10852
1417	1412	10857
1434	1414	10862
1501	1435	10866
1565	1489	10871
1576	1532	10875
1544	1472	10881
1493	1447	10886
1440	1452	10890
1372	1514	10895
1343	1654	10900
1344	1579	10904
1355	1462	10909
1397	1387	10913
1467	1391	10918
1484	1483	10924
1457	1401	10928
1422	1331	10933
1378	1318	10938
1372	1424	10942
1383	1561	10947
1392	1373	10952
1389	1293	10956
1373	1285	10961
1314	1394	10966
1267	1375	10971
1313	1279	10976
1428	1232	10980
1484	1233	10985
1514	1270	10990
1523	1448	10994
1520	1444	10999
1491	1297	11003
1472	1207	11009
1473	1320	11014
1481	1425	11018
1541	1303	11023
1587	1253	11028
1557	1116	11032
1530	1099	11037
1482	1183	11041
1490	1252	11046
1503	1157	11052
1487	1126	11056
1461	1140	11061
1431	1174	11066
1447	1220	11070
1520	1275	11075
1558	1317	11080
1599	1300	11084
1640	1453	11089
1646	1388	11094
1636	1264	11099
1620	1194	11104
1603	1199	11108
1569	1240	11113
1486	1292	11118
1500	1305	11122
1547	1368	11127
1557	1338	11131
1553	1315	11137
1524	1216	11142
1489	1214	11146
1461	1329	11151
1437	1360	11156
1426	1282	11160
1413	1217	11165
1406	1168	11169
1409	1118	11174
1425	1125	11180
1459	1163	11184
1432	1242	11189
1401	1204	11194
1388	1199	11198
1389	1213	11203
1353	1239	11208
1387	1272	11212
1417	1308	11217
1454	1341	11222
1494	1479	11227
1524	1507	11232
1495	1369	11236
1405	1272	11241
1382	1230	11246
1399	1222	11250
1391	1295	11255
1372	1420	11259
1372	1333	11265
1366	1263	11270
1371	1243	11274
1381	1249	11279
1405	1291	11284
1432	1376	11288
1449	1374	11293
1438	1344	11297
1438	1332	11302
1447	1360	11308
1458	1433	11312
1483	1476	11317
1465	1388	11322
1443	1339	11326
1419	1335	11331
1404	1347	11336
1394	1379	11340
1387	1488	11345
1435	1531	11350
1480	1447	11355
1506	1397	11360
1498	1381	11364
1509	1384	11369
1530	1392	11374
1555	1450	11378
1546	1484	11383
1528	1450	11387
1505	1471	11393
1492	1576	11398
1467	1507	11402
1512	1410	11407
1514	1416	11412
1518	1428	11416
1530	1486	11421
1524	1596	11425
1474	1458	11430
1463	1351	11436
1457	1371	11440
1433	1504	11445
1505	1453	11450
1515	1491	11454
1505	1499	11459
1497	1379	11464
1378	1408	11468
1345	1538	11473
1306	1476	11478
1365	1389	11483
1361	1329	11488
1429	1320	11492
1481	1333	11497
1538	1368	11502
1666	1427	11506
1809	1437	11511
1820	1445	11515
1759	1568	11521
1676	1698	11526
1564	1734	11530
1505	1722	11535
1470	1636	11540
1491	1691	11544
1501	1762	11549
1434	1638	11553
1444	1558	11558
1405	1575	11564
1420	1617	11568
1407	1788	11573
1428	1785	11578
1483	1617	11582
1477	1618	11587
1506	1663	11592
1576	1494	11596
1600	1408	11601
1599	1310	11606
1612	1305	11611
1659	1297	11616
1643	1313	11620
1577	1383	11625
1486	1527	11630
1379	1587	11634
1399	1629	11639
1533	1554	11643
1714	1480	11649
1751	1518	11654
1696	1568	11658
1684	1697	11663
1679	1731	11668
1717	1710	11672
1693	1611	11677
1702	1698	11681
1663	1779	11686
1595	1680	11692
1578	1560	11696
1548	1589	11701
1551	1623	11706
1517	1626	11710
1455	1572	11715
1422	1616	11720
1373	1669	11724
1324	1613	11729
1430	1486	11734
1600	1471	11739
1752	1610	11744
1699	1761	11748
1591	1721	11753
1474	1657	11758
1427	1604	11762
1499	1635	11767
1492	1650	11771
1438	1816	11777
1413	1773	11782
1484	1612	11786
1563	1563	11791
1539	1598	11796
1467	1718	11800
1422	1649	11805
1426	1665	11809
1467	1633	11814
1487	1709	11820
1488	1631	11824
1454	1660	11829
1469	1697	11834
1463	1718	11838
1419	1675	11843
1371	1654	11848
1432	1676	11852
1498	1686	11857
1591	1726	11862
1554	1736	11867
1466	1784	11872
1450	1795	11876
1399	1837	11881
1364	1780	11886
1350	1777	11890
1369	1762	11895
1395	1792	11899
1410	1764	11905
1428	1735	11910
1491	1719	11914
1578	1646	11919
1641	1653	11924
1644	1634	11928
1661	1624	11933
1670	1633	11937
1658	1667	11942
1628	1744	11948
1605	1716	11952
1578	1625	11957
1557	1617	11962
1545	1608	11966
1517	1592	11971
1471	1607	11976
1442	1639	11980
1478	1754	11985
1539	1684	11990
1599	1643	11995
1664	1587	12000
1665	1584	12004
1634	1586	12009
1570	1603	12014
1520	1611	12018
1497	1617	12023
1492	1598	12027
1470	1600	12033
1435	1714	12038
1418	1591	12042
1438	1530	12047
1480	1494	12052
1510	1493	12056
1540	1575	12061
1563	1607	12065
1566	1531	12070
1554	1466	12076
1536	1462	12080
1498	1487	12085
1487	1525	12090
1522	1499	12094
1528	1491	12099
1531	1493	12104
1538	1550	12108
1542	1655	12113
1555	1558	12118
1539	1461	12123
1503	1402	12128
1472	1424	12132
1480	1601	12137
1463	1581	12142
1412	1410	12146
1338	1300	12151
1318	1271	12155
1324	1320	12161
1385	1522	12166
1400	1337	12170
1396	1256	12175
1385	1224	12180
1366	1236	12184
1385	1288	12189
1422	1355	12193
1438	1334	12198
1452	1280	12204
1415	1281	12208
1427	1449	12213
1378	1448	12218
1396	1323	12222
1445	1232	12227
1465	1218	12232
1467	1364	12236
1468	1362	12241
1484	1187	12246
1525	1121	12251
1593	1107	12256
1668	1156	12260
1743	1259	12265
1734	1227	12270
1678	1197	12274
1657	1220	12279
1600	1312	12283
1587	1253	12289
1644	1197	12294
1698	1162	12298
1710	1169	12303
1692	1270	12308
1680	1395	12312
1619	1298	12317
1554	1236	12321
1388	1219	12326
1310	1327	12332
1381	1453	12336
1464	1375	12341
1458	1304	12346
1436	1364	12350
1450	1570	12355
1444	1793	12360
1421	1674	12364
1417	1484	12369
1439	1419	12374
1469	1402	12379
1413	1329	12384
1385	1266	12388
1438	1186	12393
1482	1153	12398
1447	1131	12402
1409	1138	12407
1371	1168	12411
1314	1211	12417
1306	1222	12422
1366	1204	12426
1413	1204	12431
1444	1225	12436
1447	1274	12440
1478	1303	12445
1518	1313	12449
1485	1344	12454
1455	1413	12460
1480	1401	12464
1508	1290	12469
1494	1277	12474
1471	1386	12478
1435	1379	12483
1356	1241	12488
1336	1146	12492
1370	1098	12497
1438	1094	12502
1444	1126	12507
1404	1173	12512
1407	1184	12516
1460	1191	12521
1491	1207	12526
1495	1233	12530
1500	1282	12535
1504	1406	12539
1466	1381	12545
1456	1302	12550
1492	1265	12554
1493	1292	12559
1477	1412	12564
1442	1377	12568
1437	1298	12573
1477	1280	12577
1506	1280	12582
1553	1307	12588
1549	1501	12592
1490	1520	12597
1465	1377	12602
1444	1302	12606
1403	1283	12611
1392	1284	12616
1471	1300	12620
1545	1339	12625
1572	1390	12630
1596	1388	12635
1600	1389	12640
1588	1385	12644
1563	1490	12649
1460	1549	12654
1462	1420	12658
1503	1385	12663
1523	1375	12667
1537	1360	12673
1538	1404	12678
1526	1473	12682
1517	1452	12687
1530	1443	12692
1621	1478	12696
1645	1669	12701
1632	1731	12705
1537	1615	12710
1451	1498	12716
1375	1443	12720
1372	1424	12725
1458	1426	12730
1469	1600	12734
1555	1617	12739
1565	1398	12744
1578	1318	12748
1619	1278	12753
1638	1316	12758
1617	1495	12763
1579	1609	12768
1566	1475	12772
1573	1326	12777
1561	1271	12782
1590	1445	12786
1570	1723	12791
1593	1472	12795
1596	1313	12801
1537	1238	12806
1568	1242	12810
1630	1378	12815
1635	1598	12820
1587	1515	12824
1544	1457	12829
1555	1441	12834
1576	1570	12838
1598	1479	12844
1580	1443	12848
1557	1381	12853
1463	1350	12858
1466	1415	12862
1510	1485	12867
1576	1453	12872
1607	1362	12876
1613	1377	12881
1653	1538	12886
1671	1561	12891
1595	1488	12896
1556	1408	12900
1652	1399	12905
1676	1462	12910
1548	1653	12914
1474	1671	12919
1501	1615	12923
1561	1600	12929
1519	1631	12934
1455	1648	12938
1385	1641	12943
1380	1586	12948
1422	1625	12952
1497	1538	12957
1499	1568	12961
1592	1666	12966
1649	1745	12972
1586	1652	12976
1452	1541	12981
1389	1588	12986
1416	1683	12990
1430	1674	12995
1463	1596	13000
1508	1556	13004
1463	1571	13009
1435	1549	13014
1460	1606	13019
1532	1694	13024
1534	1791	13028
1552	1614	13033
1528	1620	13038
1519	1826	13042
1580	1770	13047
1589	1685	13051
1631	1679	13057
1573	1576	13062
1464	1566	13066
1476	1653	13071
1455	1764	13076
1420	1680	13080
1464	1601	13085
1501	1628	13089
1548	1689	13094
1545	1763	13100
1492	1730	13104
1463	1684	13109
1443	1680	13114
1419	1670	13118
1416	1710	13123
1414	1641	13128
1418	1653	13132
1447	1719	13137
1501	1777	13142
1537	1825	13147
1532	1748	13152
1439	1751	13156
1385	1771	13161
1373	1772	13166
1383	1778	13170
1423	1792	13175
1429	1754	13179
1415	1720	13185
1403	1703	13190
1391	1759	13194
1392	1740	13199
1420	1696	13204
1438	1700	13208
1434	1747	13213
1436	1759	13217
1456	1798	13222
1464	1711	13228
1474	1675	13232
1498	1679	13237
1498	1667	13242
1436	1688	13246
1422	1697	13251
1442	1701	13255
1465	1693	13260
1477	1711	13265
1483	1776	13270
1487	1724	13275
1490	1677	13280
1473	1659	13284
1484	1662	13289
1541	1675	13294
1555	1685	13298
1538	1655	13303
1499	1633	13307
1468	1666	13313
1442	1755	13318
1449	1653	13322
1485	1583	13327
1509	1534	13332
1514	1514	13336
1483	1611	13341
1516	1735	13345
1535	1535	13350
1511	1447	13356
1500	1410	13360
1479	1423	13365
1432	1684	13370
1458	1602	13374
1491	1443	13379
1456	1359	13383
1442	1336	13388
1427	1358	13393
1384	1444	13398
1417	1428	13403
1520	1409	13408
1551	1410	13412
1545	1430	13417
1504	1506	13422
1463	1595	13426
1478	1473	13431
1527	1416	13435
1529	1396	13441
1430	1535	13446
1394	1566	13450
1426	1410	13455
1446	1308	13460
1421	1278	13464
1380	1337	13469
1389	1423	13473
1412	1362	13478
1412	1280	13484
1417	1242	13488
1396	1292	13493
1423	1318	13498
1417	1374	13502
1370	1240	13507
1363	1162	13511
1362	1147	13516
1393	1217	13521
1407	1263	13526
1409	1210	13531
1467	1214	13536
1522	1442	13540
1534	1403	13545
1500	1243	13550
1457	1157	13554
1461	1142	13559
1477	1280	13563
1529	1440	13569
1543	1421	13574
1507	1237	13578
1472	1176	13583
1442	1154	13588
1455	1241	13592
1472	1295	13597
1493	1204	13601
1443	1186	13606
1426	1200	13612
1436	1218	13616
1455	1252	13621
1467	1300	13626
1442	1281	13630
1373	1269	13635
1350	1301	13639
1363	1459	13644
1371	1507	13649
1364	1417	13654
1353	1284	13659
1397	1227	13664
1409	1253	13668
1394	1480	13673
1393	1435	13678
1392	1284	13682
1397	1239	13687
1398	1306	13691
1412	1470	13697
1431	1315	13702
1380	1164	13706
1351	1110	13711
1362	1102	13716
1386	1116	13720
1387	1144	13725
1392	1180	13729
1404	1208	13734
1435	1235	13740
1458	1266	13744
1492	1304	13749
1495	1336	13754
1521	1356	13758
1543	1379	13763
1514	1399	13768
1494	1430	13772
1456	1518	13777
1467	1542	13782
1445	1479	13787
1422	1458	13792
1451	1402	13796
1502	1376	13801
1491	1437	13806
1439	1463	13810
1472	1413	13815
1541	1391	13819
1595	1455	13825
1589	1440	13830
1543	1445	13834
1505	1394	13839
1477	1354	13844
1456	1347	13848
1422	1416	13853
1406	1484	13857
1397	1442	13862
1413	1395	13868
1468	1388	13872
1525	1424	13877
1542	1502	13882
1490	1482	13886
1470	1443	13891
1455	1417	13895
1490	1435	13900
1543	1471	13905
1537	1531	13910
1527	1574	13915
1535	1673	13920
1546	1680	13924
1569	1535	13929
1539	1477	13934
1515	1479	13938
1470	1449	13943
1438	1386	13947
1464	1397	13953
1494	1484	13958
1528	1469	13962
1543	1393	13967
1560	1415	13972
1577	1577	13976
1556	1564	13981
1584	1611	13985
1651	1618	13990
1685	1522	13996
1682	1405	14000
1612	1427	14005
1515	1384	14010
1543	1338	14014
1588	1273	14019
1603	1292	14023
1476	1468	14028
1416	1595	14033
1422	1521	14038
1425	1547	14043
1490	1575	14048
1578	1508	14052
1581	1537	14057
1513	1502	14062
1539	1285	14066
1575	1245	14071
1539	1254	14075
1498	1386	14081
1475	1575	14086
1380	1552	14090
1294	1417	14095
1457	1380	14100
1595	1495	14104
1552	1581	14109
1477	1593	14113
1506	1490	14118
1500	1446	14124
1421	1480	14128
1434	1523	14133
1396	1617	14138
1446	1786	14142
1454	1590	14147
1445	1576	14151
1447	1690	14156
1451	1746	14161
1451	1699	14166
1399	1731	14171
1351	1680	14176
1438	1606	14180
1575	1594	14185
1611	1620	14190
1618	1519	14194
1596	1574	14199
1541	1559	14203
1557	1593	14209
1544	1597	14214
1569	1699	14218
1595	1877	14223
1505	1795	14228
1369	1626	14232
1316	1586	14237
1307	1642	14241
1404	1709	14246
1514	1674	14252
1549	1601	14256
1594	1601	14261
1569	1742	14266
1507	1778	14270
1523	1715	14275
1541	1684	14279
1559	1707	14284
1496	1726	14289
1544	1676	14294
1580	1748	14299
1528	1763	14304
1527	1738	14308
1567	1787	14313
1544	1799	14318
1490	1756	14322
1524	1639	14327
1634	1646	14331
1647	1659	14337
1586	1682	14342
1588	1857	14346
1590	1857	14351
1561	1733	14356
1514	1722	14360
1407	1792	14365
1455	1852	14369
1481	1829	14374
1471	1950	14380
1404	1812	14384
1308	1779	14389
1292	1785	14394
1367	1786	14398
1452	1807	14403
1442	1853	14407
1421	2010	14412
1456	1918	14417
1486	1811	14422
1454	1750	14427
1443	1729	14432
1466	1728	14436
1473	1739	14441
1423	1786	14446
1414	1800	14450
1409	1790	14455
1400	1771	14459
1379	1777	14465
1352	1788	14470
1343	1802	14474
1367	1791	14479
1423	1800	14484
1469	1777	14488
1483	1756	14493
1492	1754	14497
1512	1752	14502
1516	1755	14508
1507	1749	14512
1496	1739	14517
1482	1733	14522
1468	1733	14526
1484	1734	14531
1514	1720	14535
1569	1704	14540
1552	1695	14545
1534	1738	14550
1526	1826	14555
1521	1731	14560
1553	1608	14564
1588	1523	14569
1586	1503	14574
1567	1512	14578
1591	1562	14583
1641	1538	14587
1665	1532	14593
1653	1576	14598
1635	1709	14602
1640	1632	14607
1602	1545	14612
1521	1455	14616
1465	1436	14621
1428	1482	14625
1378	1654	14630
1383	1489	14636
1449	1411	14640
1457	1375	14645
1391	1405	14650
1376	1569	14654
1404	1505	14659
1410	1382	14663
1417	1327	14668
1413	1397	14673
1359	1463	14678
1314	1448	14683
1275	1387	14688
1282	1272	14692
1307	1246	14697
1318	1253	14702
1337	1378	14706
1360	1362	14711
1383	1325	14715
1400	1297	14721
1362	1323	14726
1376	1531	14730
1361	1440	14735
1345	1307	14740
1354	1255	14744
1328	1265	14749
1288	1423	14753
1280	1390	14758
1348	1271	14764
1457	1244	14768
1474	1348	14773
1470	1329	14778
1461	1298	14782
1476	1309	14787
1466	1215	14792
1482	1148	14796
1490	1268	14801
1474	1377	14806
1427	1162	14811
1383	1079	14816
1387	1055	14820
1443	1077	14825
1530	1123	14830
1593	1220	14834
1611	1241	14839
1572	1211	14843
1612	1233	14849
1596	1369	14854
1563	1500	14858
1558	1291	14863
1544	1199	14868
1514	1218	14872
1427	1361	14877
1404	1366	14881
1431	1234	14886
1464	1196	14892
1445	1216	14896
1381	1342	14901
1347	1347	14906
1383	1242	14910
1436	1209	14915
1467	1209	14919
1465	1249	14924
1444	1357	14929
1432	1360	14934
1430	1272	14939
1436	1237	14944
1445	1237	14948
1503	1285	14953
1488	1406	14958
1448	1341	14962
1408	1288	14967
1418	1279	14971
1450	1323	14977
1464	1469	14982
1463	1508	14986
1461	1363	14991
1494	1283	14996
1460	1274	15000
1484	1292	15005
1522	1471	15009
1542	1421	15014
1532	1307	15020
1515	1308	15024
1502	1260	15029
1507	1217	15034
1533	1223	15038
1552	1267	15043
1537	1286	15047
1510	1265	15052
1519	1284	15057
1478	1318	15062
1493	1340	15067
1513	1362	15072
1526	1371	15076
1526	1384	15081
1518	1407	15086
1495	1456	15090
1470	1508	15095
1448	1471	15099
1457	1458	15105
1480	1462	15110
1509	1562	15114
1521	1729	15119
1516	1655	15124
1530	1475	15128
1578	1386	15133
1623	1380	15137
1618	1452	15142
1648	1484	15148
1623	1419	15152
1599	1375	15157
1589	1361	15162
1576	1381	15166
1580	1491	15171
1569	1525	15176
1546	1420	15180
1543	1382	15185
1530	1380	15190
1500	1407	15195
1501	1444	15200
1505	1458	15204
1514	1463	15209
1520	1472	15214
1519	1490	15218
1487	1540	15223
1467	1576	15227
1439	1596	15233
1446	1563	15238
1500	1548	15242
1546	1534	15247
1547	1552	15252
1533	1602	15256
1514	1618	15261
1488	1601	15265
1455	1590	15270
1443	1565	15276
1475	1565	15280
1483	1632	15285
1463	1561	15290
1384	1521	15294
1383	1568	15299
1401	1556	15304
1498	1474	15308
1544	1556	15313
1501	1692	15318
1513	1645	15323
1589	1583	15328
1504	1600	15332
1467	1428	15337
1422	1363	15342
1430	1434	15346
1369	1507	15351
1315	1407	15355
1301	1368	15361
1350	1376	15366
1415	1429	15370
1420	1496	15375
1414	1515	15380
1480	1449	15384
1567	1418	15389
1576	1564	15393
1508	1684	15398
1437	1561	15404
1500	1482	15408
1529	1453	15413
1537	1435	15418
1565	1491	15422
1577	1570	15427
1515	1458	15432
1611	1415	15436
1695	1393	15441
1699	1582	15446
1694	1737	15451
1555	1587	15456
1491	1575	15460
1479	1603	15465
1492	1508	15470
1453	1528	15474
1424	1614	15479
1373	1544	15483
1384	1435	15489
1337	1422	15494
1391	1581	15498
1545	1611	15503
1595	1588	15508
1638	1693	15512
1660	1630	15517
1599	1482	15521
1466	1441	15526
1532	1510	15532
1589	1555	15536
1573	1589	15541
1596	1609	15546
1557	1558	15550
1620	1445	15555
1716	1444	15560
1700	1573	15564
1645	1703	15569
1562	1658	15574
1615	1561	15579
1679	1543	15584
1755	1610	15588
1798	1777	15593
1645	1772	15598
1469	1632	15602
1344	1571	15607
1352	1583	15611
1372	1712	15617
1347	1699	15622
1327	1671	15626
1415	1602	15631
1507	1633	15636
1470	1718	15640
1497	1763	15645
1585	1726	15649
1638	1790	15654
1544	1813	15660
1369	1780	15664
1447	1732	15669
1648	1711	15674
1632	1675	15678
1543	1789	15683
1538	1811	15688
1548	1839	15692
1512	1737	15697
1569	1717	15702
1621	1672	15707
1694	1720	15712
1718	1797	15716
1685	1844	15721
1514	1776	15726
1476	1788	15730
1467	1849	15735
1448	1891	15739
1517	1918	15745
1539	1893	15750
1509	1797	15754
1510	1728	15759
1505	1687	15764
1485	1679	15768
1449	1790	15773
1446	1814	15777
1429	1732	15782
1414	1692	15788
1458	1775	15792
1571	1682	15797
1436	1734	15802
1334	1773	15806
1273	1704	15811
1221	1560	15815
1229	1535	15820
1280	1548	15825
1338	1613	15830
1444	1614	15835
1606	1684	15840
1530	1661	15844
1364	1600	15849
1309	1551	15854
1329	1518	15858
1396	1558	15863
1401	1681	15867
1351	1599	15873
1347	1523	15878
1323	1492	15882
1357	1504	15887
1450	1642	15892
1445	1660	15896
1431	1556	15901
1435	1538	15905
1471	1577	15910
1532	1635	15916
1518	1527	15920
1426	1454	15925
1344	1429	15930
1261	1464	15934
1251	1535	15939
1274	1589	15944
1312	1580	15948
1381	1565	15953
1448	1560	15958
1490	1592	15963
1473	1771	15968
1487	1792	15972
1431	1645	15977
1490	1528	15982
1502	1496	15986
1437	1492	15991
1415	1516	15995
1451	1584	16001
1483	1515	16006
1520	1494	16010
1519	1507	16015
1528	1524	16020
1560	1634	16024
1543	1723	16029
1568	1627	16033
1620	1514	16038
1627	1487	16044
1541	1444	16048
1484	1438	16053
1509	1430	16058
1473	1457	16062
1477	1528	16067
1445	1550	16072
1428	1521	16076
1459	1522	16081
1514	1501	16086
1522	1479	16091
1505	1532	16096
1516	1548	16100
1575	1468	16105
1601	1432	16110
1576	1486	16114
1539	1447	16119
1522	1423	16123
1514	1414	16129
1523	1458	16134
1503	1473	16138
1456	1522	16143
1462	1551	16148
1516	1602	16152
1589	1582	16157
1604	1572	16161
1574	1427	16166
1559	1381	16172
1550	1429	16176
1506	1374	16181
1476	1366	16186
1487	1383	16190
1461	1403	16195
1437	1479	16200
1473	1474	16204
1534	1471	16209
1571	1525	16214
1626	1603	16219
1632	1557	16224
1559	1457	16228
1519	1403	16233
1487	1374	16238
1454	1387	16242
1442	1411	16247
1475	1453	16251
1514	1482	16257
1529	1492	16262
1547	1500	16266
1545	1575	16271
1523	1688	16276
1514	1569	16280
1582	1507	16285
1624	1446	16289
1626	1407	16294
1619	1416	16300
1626	1439	16304
1635	1476	16309
1625	1518	16314
1604	1549	16318
1596	1608	16323
1566	1540	16328
1540	1502	16332
1511	1463	16337
1480	1442	16342
1453	1422	16347
1431	1442	16352
1436	1491	16356
1485	1467	16361
1508	1498	16366
1519	1561	16370
1537	1614	16375
1530	1527	16379
1506	1493	16385
1482	1482	16390
1457	1484	16394
1441	1540	16399
1432	1563	16404
1427	1524	16408
1410	1529	16413
1409	1526	16417
1429	1539	16422
1438	1543	16428
1431	1583	16432
1433	1593	16437
1452	1597	16442
1473	1586	16446
1484	1530	16451
1488	1507	16456
1487	1526	16460
1471	1530	16465
1449	1520	16470
1454	1543	16475
1460	1543	16480
1471	1494	16484
1476	1518	16489
1477	1551	16494
1473	1485	16498
1470	1454	16503
1469	1448	16507
1454	1460	16513
1444	1480	16518
1446	1508	16522
1469	1581	16527
1485	1621	16532
1495	1545	16536
1508	1482	16541
1510	1459	16545
1497	1460	16550
1487	1478	16556
1499	1507	16560
1527	1515	16565
1551	1565	16570
1550	1534	16574
1539	1516	16579
1527	1514	16584
1517	1530	16588
1494	1574	16593
1491	1579	16598
1494	1577	16603
1506	1535	16608
1516	1518	16612
1522	1513	16617
1524	1526	16622
1523	1607	16626
1523	1575	16631
1524	1573	16635
1522	1533	16641
1516	1528	16646
1512	1498	16650
1507	1496	16655
1502	1477	16660
1513	1465	16664
1524	1462	16669
1531	1472	16673
1537	1524	16678
1540	1558	16684
1538	1538	16688
1535	1499	16693
1528	1478	16698
1521	1477	16702
1519	1505	16707
1517	1506	16712
1500	1504	16716
1486	1511	16721
1492	1524	16726
1503	1523	16731
1508	1550	16736
1511	1542	16740
1511	1554	16745
1510	1537	16750
1504	1511	16754
1500	1505	16759
1506	1512	16763
1497	1471	16769
1490	1450	16774
1499	1461	16778
1512	1456	16783
1522	1459	16788
1525	1489	16792
1521	1505	16797
1517	1479	16801
1521	1466	16806
1523	1457	16812
1521	1455	16816
1516	1464	16821
1509	1484	16826
1507	1505	16830
1504	1509	16835
1503	1518	16840
1498	1526	16844
1495	1524	16849
1509	1520	16854
1535	1519	16859
1569	1511	16864
1589	1508	16868
1598	1532	16873
1594	1534	16878
1587	1543	16882
1583	1510	16887
1578	1504	16891
1569	1491	16897
1560	1501	16902
1549	1504	16906
1545	1524	16911
1533	1520	16916
1523	1492	16920
1514	1456	16925
1505	1432	16930
1503	1432	16934
1496	1461	16940
1488	1434	16944
1482	1446	16949
1485	1454	16954
1479	1446	16958
1475	1414	16963
1470	1404	16968
1467	1430	16972
1466	1417	16977
1464	1398	16982
1467	1394	16987
1472	1424	16992
1478	1438	16996
1480	1452	17001
1464	1408	17006
1459	1396	17010
1460	1419	17015
1460	1381	17019
1455	1374	17025
1458	1378	17030
1458	1373	17034
1454	1389	17039
1455	1384	17044
1458	1403	17048
1450	1428	17053
1445	1482	17057
1449	1473	17062
1449	1404	17068
1448	1374	17072
1445	1366	17077
1437	1369	17082
1432	1375	17086
1440	1395	17091
1455	1418	17096
1476	1462	17100
1491	1470	17105
1491	1457	17110
1473	1456	17115
1460	1461	17120
1458	1445	17124
1460	1461	17129
1458	1448	17134
1460	1435	17138
1460	1402	17143
1460	1388	17147
1456	1399	17153
1458	1423	17158
1469	1437	17162
1474	1436	17167
1490	1412	17172
1507	1441	17176
1512	1443	17181
1510	1435	17185
1499	1389	17190
1489	1407	17196
1487	1365	17200
1495	1350	17205
1504	1347	17210
1498	1365	17214
1481	1417	17219
1464	1434	17224
1468	1416	17228
1468	1378	17233
1464	1369	17238
1468	1443	17243
1482	1392	17248
1509	1359	17252
1511	1368	17257
1494	1376	17262
1479	1390	17266
1475	1415	17271
1473	1494	17275
1470	1500	17281
1475	1541	17286
1470	1521	17290
1469	1479	17295
1477	1442	17300
1491	1425	17304
1498	1429	17309
1496	1442	17313
1509	1482	17318
1522	1541	17324
1517	1472	17328
1502	1431	17333
1493	1428	17338
1500	1411	17342
1504	1383	17347
1497	1382	17352
1485	1450	17356
1477	1450	17361
1481	1456	17366
1497	1447	17371
1518	1444	17376
1538	1478	17380
1535	1517	17385
1508	1459	17390
1481	1444	17394
1462	1417	17399
1465	1411	17403
1477	1399	17409
1496	1424	17414
1518	1449	17418
1547	1462	17423
1564	1478	17428
1558	1476	17432
1552	1472	17437
1547	1465	17441
1555	1486	17446
