1469	1517	4
1466	1528	9
1464	1534	13
1454	1540	18
1440	1546	22
1440	1555	27
1441	1558	31
1441	1560	36
1443	1563	40
1444	1563	45
1447	1562	50
1447	1566	54
1450	1572	59
1455	1571	63
1443	1573	68
1435	1582	72
1433	1614	77
1428	1590	81
1429	1565	87
1437	1551	91
1433	1552	96
1416	1563	100
1406	1583	105
1411	1547	109
1404	1480	114
1409	1441	118
1434	1435	123
1444	1419	128
1454	1412	133
1473	1417	137
1485	1396	142
1490	1368	147
1495	1364	151
1498	1356	156
1493	1367	160
1487	1374	165
1482	1362	169
1480	1375	175
1479	1392	179
1478	1414	184
1476	1429	188
1477	1375	193
1477	1333	197
1476	1280	202
1471	1265	206
1468	1272	211
1471	1307	216
1473	1358	221
1476	1353	225
1479	1354	230
1480	1346	235
1480	1375	239
1478	1434	244
1472	1416	248
1470	1449	253
1471	1399	258
1472	1437	263
1471	1435	267
1468	1414	272
1461	1385	276
1456	1409	281
1450	1432	285
1437	1431	290
1429	1421	294
1441	1438	300
1452	1371	304
1442	1394	309
1401	1424	314
1389	1364	318
1404	1365	323
1432	1405	327
1449	1408	332
1469	1432	336
1446	1475	342
1418	1490	346
1435	1501	351
1454	1499	355
1478	1511	360
1492	1489	364
1488	1498	369
1476	1521	373
1462	1535	378
1456	1480	382
1450	1497	388
1466	1489	393
1480	1524	397
1481	1538	402
1476	1556	406
1471	1655	411
1472	1570	415
1463	1539	420
1463	1501	424
1465	1525	430
1469	1518	434
1497	1560	439
1524	1565	443
1559	1553	448
1565	1549	452
1546	1571	457
1527	1585	461
1543	1600	466
1564	1627	472
1571	1570	476
1567	1556	481
1560	1552	485
1555	1536	490
1546	1505	494
1540	1517	499
1536	1535	503
1534	1541	508
1533	1533	513
1520	1526	518
1504	1511	522
1498	1511	527
1500	1516	531
1497	1531	536
1489	1561	540
1479	1575	545
1476	1570	550
1472	1572	555
1471	1561	560
1464	1561	564
1460	1543	569
1478	1546	573
1484	1563	578
1482	1565	582
1484	1570	587
1491	1560	591
1495	1579	596
1493	1559	601
1489	1525	606
1479	1508	610
1467	1512	615
1453	1520	619
1467	1531	624
1479	1504	629
1474	1521	633
1468	1551	638
1464	1529	643
1451	1548	648
1434	1522	652
1432	1517	657
1457	1530	661
1471	1567	666
1465	1552	670
1461	1586	675
1467	1553	679
1486	1525	685
1495	1535	689
1499	1540	694
1492	1540	698
1490	1548	703
1484	1504	708
1486	1529	712
1495	1531	717
1486	1519	721
1482	1509	727
1488	1489	731
1499	1473	736
1510	1476	740
1521	1496	745
1524	1551	749
1521	1603	754
1517	1559	758
1521	1476	763
1530	1441	768
1532	1444	773
1529	1474	777
1520	1488	782
1521	1494	787
1522	1483	791
1524	1478	796
1517	1510	800
1518	1537	805
1521	1528	809
1518	1507	815
1517	1491	819
1520	1502	824
1527	1487	828
1526	1484	833
1529	1527	837
1531	1501	842
1531	1497	846
1530	1454	851
1525	1437	856
1519	1431	861
1514	1453	866
1514	1506	870
1517	1525	875
1514	1481	879
1510	1477	884
1513	1447	888
1495	1475	893
1473	1504	898
1500	1448	903
1519	1433	907
1519	1431	912
1523	1466	916
1529	1496	921
1535	1525	925
1531	1562	930
1527	1529	934
1525	1545	940
1526	1498	945
1527	1463	949
1524	1441	954
1516	1445	958
1518	1452	963
1515	1481	967
1509	1511	972
1510	1529	976
1514	1503	982
1506	1511	986
1514	1537	991
1518	1569	995
1522	1540	1000
1529	1539	1004
1524	1494	1009
1510	1490	1014
1505	1511	1018
1505	1487	1024
1511	1503	1028
1512	1485	1033
1507	1495	1038
1511	1515	1042
1527	1504	1047
1560	1492	1051
1575	1496	1056
1585	1496	1060
1586	1499	1065
1592	1532	1071
1581	1533	1075
1574	1547	1080
1558	1559	1084
1540	1555	1089
1523	1538	1093
1512	1511	1098
1504	1502	1103
1499	1500	1107
1489	1514	1113
1485	1509	1117
1489	1515	1122
1488	1535	1127
1479	1541	1131
1472	1528	1136
1465	1504	1140
1457	1494	1145
1444	1504	1149
1432	1501	1155
1433	1491	1160
1439	1493	1164
1443	1528	1169
1433	1534	1173
1415	1543	1178
1415	1495	1182
1418	1485	1187
1426	1472	1192
1431	1500	1197
1431	1495	1202
1433	1481	1206
1443	1479	1211
1433	1477	1216
1421	1508	1220
1426	1508	1225
1439	1483	1229
1441	1471	1234
1425	1515	1239
1411	1531	1244
1411	1478	1249
1428	1442	1253
1440	1435	1258
1437	1468	1262
1427	1522	1267
1427	1450	1271
1424	1435	1276
1418	1439	1282
1426	1432	1286
1438	1410	1291
1448	1420	1295
1448	1429	1300
1449	1481	1305
1450	1542	1309
1449	1453	1314
1453	1384	1318
1458	1355	1324
1457	1368	1328
1463	1426	1333
1470	1429	1338
1480	1377	1342
1485	1348	1347
1494	1374	1351
1498	1442	1356
1496	1407	1361
1487	1372	1366
1495	1370	1371
1514	1417	1375
1503	1484	1380
1499	1465	1384
1506	1405	1389
1511	1379	1394
1506	1401	1398
1490	1480	1403
1483	1480	1408
1490	1423	1413
1507	1377	1417
1512	1369	1422
1494	1406	1427
1471	1573	1431
1498	1461	1436
1525	1408	1440
1530	1368	1445
1524	1429	1451
1490	1531	1455
1482	1442	1460
1499	1370	1464
1511	1340	1469
1482	1383	1473
1464	1462	1478
1468	1434	1483
1488	1399	1487
1496	1364	1492
1484	1395	1497
1481	1501	1502
1490	1529	1506
1488	1444	1511
1462	1395	1516
1459	1393	1520
1448	1492	1525
1462	1536	1529
1478	1497	1534
1494	1452	1540
1490	1429	1544
1459	1512	1549
1462	1541	1553
1488	1531	1558
1506	1453	1562
1516	1427	1567
1512	1450	1572
1513	1601	1576
1496	1572	1582
1487	1517	1586
1474	1500	1591
1453	1568	1595
1439	1571	1600
1478	1523	1605
1513	1480	1609
1513	1468	1614
1485	1522	1618
1478	1586	1624
1497	1595	1629
1510	1543	1633
1525	1546	1638
1538	1679	1642
1548	1736	1647
1542	1646	1651
1561	1551	1656
1547	1492	1661
1565	1521	1666
1576	1538	1671
1602	1508	1675
1611	1517	1680
1600	1502	1685
1584	1502	1689
1563	1536	1694
1556	1624	1698
1559	1653	1703
1549	1619	1708
1554	1603	1713
1532	1563	1718
1497	1578	1722
1477	1575	1727
1492	1547	1731
1498	1535	1736
1476	1542	1740
1476	1601	1745
1469	1656	1751
1464	1628	1755
1481	1608	1760
1504	1629	1764
1485	1602	1769
1440	1612	1774
1426	1587	1778
1427	1593	1783
1415	1634	1787
1392	1669	1793
1393	1651	1797
1431	1654	1802
1459	1716	1807
1483	1870	1811
1488	1820	1816
1503	1750	1820
1503	1716	1825
1491	1752	1829
1482	1837	1835
1480	1804	1840
1469	1783	1844
1455	1783	1849
1432	1898	1853
1396	1991	1858
1385	1894	1863
1394	1838	1867
1419	1838	1872
1442	1916	1876
1466	2013	1882
1477	1944	1886
1469	1861	1891
1462	1829	1896
1446	1842	1900
1455	1945	1905
1461	1935	1909
1470	1873	1914
1469	1857	1918
1478	1883	1924
1491	1980	1929
1508	1952	1933
1508	1916	1938
1506	1917	1942
1494	2047	1947
1484	2047	1952
1494	1994	1956
1495	1917	1961
1493	1909	1966
1487	1987	1971
1469	1988	1975
1472	1932	1980
1497	1895	1985
1521	1903	1989
1534	2026	1994
1548	2013	1998
1546	1919	2003
1535	1876	2008
1532	1879	2013
1536	1930	2018
1511	1951	2022
1514	1941	2027
1521	1935	2031
1523	1953	2036
1533	2010	2041
1537	2047	2045
1525	2047	2051
1519	2016	2055
1517	1985	2060
1512	2023	2064
1518	2047	2069
1527	2047	2074
1516	2047	2078
1513	2012	2083
1505	2047	2087
1478	2047	2093
1481	2047	2098
1499	2043	2102
1493	2010	2107
1487	1979	2111
1510	2018	2116
1520	2047	2120
1524	2041	2125
1515	2008	2130
1511	1990	2135
1497	2028	2140
1514	2047	2144
1527	2047	2149
1534	2047	2153
1542	2047	2158
1550	2025	2163
1562	2039	2167
1544	2047	2172
1536	2047	2177
1540	2047	2182
1531	2008	2187
1522	1989	2191
1544	2038	2196
1569	2047	2200
1565	2037	2205
1546	2023	2209
1554	2047	2214
1586	2047	2220
1587	2047	2224
1566	2006	2229
1535	1992	2233
1506	2007	2238
1524	1998	2242
1532	1924	2247
1538	1851	2252
1606	1929	2256
1637	2047	2262
1612	2047	2266
1634	1956	2271
1690	1933	2276
1707	1940	2280
1735	1884	2285
1731	1820	2289
1688	1860	2294
1739	1940	2298
1808	1873	2304
1749	1884	2309
1701	1846	2313
1639	1770	2318
1576	1731	2322
1509	1830	2327
1473	1923	2332
1442	1866	2336
1464	1808	2341
1507	1808	2345
1516	1870	2351
1482	1772	2355
1449	1789	2360
1432	1700	2365
1403	1697	2369
1375	1703	2374
1375	1671	2378
1460	1737	2383
1513	1777	2387
1492	1708	2393
1414	1641	2398
1432	1700	2402
1458	1714	2407
1471	1648	2411
1465	1637	2416
1426	1669	2421
1372	1703	2425
1403	1660	2430
1461	1624	2435
1445	1623	2440
1402	1675	2444
1394	1704	2449
1411	1658	2454
1451	1572	2458
1445	1510	2463
1427	1514	2467
1465	1554	2472
1449	1650	2477
1451	1608	2482
1449	1547	2487
1382	1497	2491
1405	1446	2496
1395	1427	2500
1405	1456	2505
1469	1404	2510
1507	1456	2514
1499	1425	2520
1478	1425	2524
1442	1444	2529
1460	1331	2533
1473	1331	2538
1555	1319	2543
1599	1380	2547
1557	1342	2552
1459	1276	2556
1403	1260	2562
1409	1302	2566
1426	1329	2571
1475	1293	2576
1534	1316	2580
1529	1291	2585
1547	1267	2589
1565	1245	2594
1546	1204	2599
1522	1189	2604
1532	1131	2609
1540	1155	2613
1560	1242	2618
1523	1132	2622
1505	1106	2627
1475	1097	2632
1445	1102	2636
1429	1155	2641
1418	1235	2646
1414	1262	2651
1414	1163	2655
1434	1206	2660
1480	1200	2665
1478	1164	2669
1503	1170	2674
1541	1163	2678
1496	1165	2683
1462	1158	2689
1446	1203	2693
1448	1179	2698
1452	1179	2702
1435	1185	2707
1429	1125	2711
1432	1117	2716
1479	1164	2721
1531	1117	2725
1542	1086	2731
1519	1064	2735
1509	1074	2740
1526	1060	2744
1499	1053	2749
1485	1047	2754
1475	1046	2758
1462	1043	2763
1451	1057	2767
1452	1079	2772
1465	1056	2778
1470	1051	2782
1484	1062	2787
1499	1076	2791
1499	1076	2796
1497	1058	2800
1493	1050	2805
1470	1062	2810
1444	1108	2814
1431	1073	2820
1451	1049	2824
1463	1035	2829
1452	1034	2834
1463	1123	2838
1510	1151	2843
1512	1070	2847
1521	1015	2852
1509	996	2856
1474	1019	2862
1473	1033	2867
1466	1028	2871
1455	1024	2876
1447	1040	2880
1439	1102	2885
1438	1145	2889
1438	1118	2894
1437	1093	2899
1420	1129	2904
1468	1185	2909
1497	1113	2913
1506	1064	2918
1528	1025	2922
1549	1019	2927
1558	1059	2932
1551	1108	2936
1550	1105	2941
1554	1094	2946
1557	1173	2951
1576	1335	2956
1545	1219	2960
1481	1115	2965
1462	1068	2969
1447	1055	2974
1410	1144	2978
1402	1220	2983
1415	1153	2989
1417	1142	2993
1425	1172	2998
1451	1265	3002
1460	1280	3007
1442	1222	3012
1390	1172	3016
1343	1207	3021
1330	1374	3025
1316	1263	3031
1316	1187	3035
1329	1147	3040
1337	1145	3045
1339	1224	3049
1358	1298	3054
1400	1227	3058
1418	1172	3063
1442	1180	3067
1471	1264	3073
1476	1247	3078
1424	1214	3082
1410	1150	3087
1387	1135	3091
1343	1244	3096
1298	1214	3101
1294	1157	3105
1348	1132	3110
1404	1181	3115
1454	1310	3120
1447	1204	3124
1444	1140	3129
1457	1113	3134
1436	1177	3138
1418	1250	3143
1385	1174	3147
1336	1139	3152
1355	1095	3156
1362	1099	3162
1378	1133	3167
1392	1133	3171
1414	1154	3176
1426	1175	3180
1496	1256	3185
1543	1220	3190
1539	1184	3194
1502	1202	3200
1494	1279	3204
1474	1279	3209
1462	1172	3213
1446	1126	3218
1432	1128	3223
1447	1163	3227
1463	1238	3232
1455	1228	3236
1465	1222	3241
1493	1192	3247
1515	1193	3251
1531	1287	3256
1534	1331	3260
1527	1330	3265
1511	1268	3269
1488	1245	3274
1499	1306	3279
1509	1426	3283
1495	1490	3289
1573	1412	3293
1604	1303	3298
1586	1281	3302
1557	1325	3307
1517	1348	3312
1472	1329	3316
1459	1337	3321
1462	1381	3325
1479	1448	3331
1497	1481	3336
1518	1524	3340
1512	1489	3345
1518	1454	3349
1465	1458	3354
1457	1505	3358
1386	1453	3363
1403	1443	3368
1450	1464	3373
1505	1559	3378
1549	1607	3382
1550	1612	3387
1466	1543	3391
1427	1516	3396
1389	1534	3401
1383	1699	3405
1396	1845	3410
1423	1721	3415
1474	1606	3420
1519	1506	3425
1576	1472	3429
1627	1544	3434
1624	1621	3438
1607	1552	3443
1583	1515	3447
1576	1553	3452
1454	1714	3458
1448	1670	3462
1533	1578	3467
1638	1568	3471
1664	1682	3476
1608	1678	3480
1577	1567	3485
1544	1520	3490
1538	1523	3494
1507	1614	3500
1523	1589	3504
1586	1617	3509
1599	1672	3514
1582	1675	3518
1533	1628	3523
1529	1628	3527
1568	1637	3532
1657	1702	3536
1646	1621	3542
1549	1574	3547
1491	1595	3551
1535	1705	3556
1584	1726	3560
1591	1632	3565
1593	1566	3570
1560	1643	3574
1548	1676	3579
1588	1632	3584
1672	1616	3589
1702	1662	3593
1696	1671	3598
1636	1651	3603
1550	1572	3607
1493	1519	3612
1477	1605	3616
1504	1663	3621
1528	1605	3625
1546	1533	3631
1545	1508	3636
1562	1573	3640
1493	1544	3645
1505	1535	3649
1587	1542	3654
1596	1535	3659
1556	1572	3663
1526	1666	3668
1501	1681	3673
1501	1642	3678
1456	1618	3682
1419	1577	3687
1396	1475	3692
1368	1458	3696
1461	1539	3701
1499	1515	3705
1478	1457	3710
1454	1373	3715
1533	1336	3720
1532	1345	3725
1474	1474	3729
1465	1548	3734
1484	1389	3738
1476	1349	3743
1466	1432	3748
1435	1472	3752
1412	1495	3758
1455	1433	3762
1465	1346	3767
1543	1360	3771
1562	1494	3776
1540	1500	3781
1494	1430	3785
1438	1449	3790
1417	1397	3794
1423	1444	3800
1446	1510	3804
1456	1513	3809
1477	1427	3814
1465	1354	3818
1436	1366	3823
1420	1423	3827
1420	1461	3832
1441	1505	3837
1455	1468	3842
1459	1532	3847
1462	1535	3851
1466	1469	3856
1478	1384	3860
1482	1388	3865
1476	1386	3870
1487	1400	3874
1540	1506	3879
1576	1508	3884
1575	1450	3889
1556	1361	3894
1529	1335	3898
1505	1320	3903
1485	1314	3907
1485	1330	3912
1523	1385	3916
1581	1423	3921
1579	1383	3927
1539	1327	3931
1520	1306	3936
1518	1310	3940
1509	1334	3945
1520	1371	3949
1529	1330	3954
1496	1323	3959
1474	1315	3963
1485	1343	3969
1489	1366	3973
1474	1334	3978
1481	1312	3983
1484	1288	3987
1482	1278	3992
1476	1291	3996
1489	1306	4001
1480	1311	4005
1461	1310	4011
1454	1317	4016
1456	1337	4020
1464	1384	4025
1469	1352	4029
1441	1307	4034
1410	1288	4038
1412	1305	4043
1427	1262	4048
1459	1303	4052
1482	1393	4058
1473	1282	4062
1460	1200	4067
1438	1181	4072
1446	1222	4076
1480	1315	4081
1483	1239	4085
1463	1189	4090
1440	1179	4094
1408	1191	4100
1413	1306	4105
1412	1249	4109
1417	1230	4114
1423	1246	4118
1453	1316	4123
1488	1308	4127
1506	1275	4132
1465	1236	4137
1438	1249	4142
1408	1374	4147
1396	1366	4151
1394	1269	4156
1388	1227	4161
1396	1232	4165
1386	1338	4170
1396	1309	4174
1473	1299	4179
1554	1295	4184
1599	1310	4189
1588	1326	4194
1547	1263	4198
1516	1182	4203
1498	1137	4207
1475	1208	4212
1474	1290	4217
1478	1223	4221
1457	1119	4227
1412	1091	4231
1417	1100	4236
1439	1200	4240
1455	1181	4245
1474	1170	4250
1471	1140	4254
1462	1208	4259
1428	1247	4263
1406	1187	4269
1378	1127	4273
1336	1116	4278
1346	1237	4283
1386	1305	4287
1382	1153	4292
1353	1096	4296
1335	1095	4301
1334	1206	4306
1370	1221	4311
1418	1205	4316
1443	1152	4320
1419	1160	4325
1405	1291	4329
1386	1230	4334
1392	1101	4339
1360	1066	4343
1336	1109	4348
1334	1073	4353
1352	1080	4358
1373	1089	4362
1375	1109	4367
1371	1150	4372
1404	1220	4376
1440	1284	4381
1445	1229	4385
1410	1230	4390
1376	1307	4396
1364	1289	4400
1375	1267	4405
1377	1238	4409
1377	1234	4414
1369	1284	4418
1371	1358	4423
1367	1290	4428
1388	1312	4432
1434	1361	4438
1434	1330	4442
1420	1376	4447
1390	1494	4451
1384	1408	4456
1409	1325	4461
1426	1267	4465
1413	1256	4470
1408	1272	4474
1420	1383	4480
1435	1446	4485
1456	1412	4489
1492	1420	4494
1509	1472	4498
1491	1435	4503
1469	1381	4507
1470	1445	4512
1519	1473	4517
1538	1456	4521
1471	1404	4527
1449	1377	4531
1439	1381	4536
1458	1425	4540
1460	1608	4545
1478	1647	4550
1495	1587	4554
1446	1527	4559
1403	1470	4563
1415	1427	4569
1439	1447	4574
1465	1492	4578
1484	1460	4583
1512	1503	4587
1500	1585	4592
1471	1638	4596
1463	1592	4601
1467	1638	4606
1461	1668	4611
1485	1597	4616
1502	1464	4620
1520	1469	4625
1496	1428	4630
1472	1435	4634
1444	1578	4639
1420	1680	4643
1387	1479	4648
1414	1474	4653
1451	1518	4658
1548	1509	4663
1531	1515	4667
1511	1471	4672
1535	1534	4676
1551	1621	4681
1564	1521	4685
1559	1514	4690
1469	1569	4696
1460	1651	4700
1444	1677	4705
1491	1690	4709
1504	1676	4714
1485	1623	4719
1466	1555	4723
1466	1568	4728
1483	1580	4732
1522	1547	4738
1534	1498	4742
1526	1471	4747
1543	1509	4752
1542	1595	4756
1490	1710	4761
1403	1540	4765
1429	1526	4770
1358	1583	4774
1381	1569	4780
1403	1569	4785
1441	1513	4789
1469	1469	4794
1489	1537	4798
1559	1530	4803
1695	1561	4808
1736	1572	4812
1653	1613	4817
1577	1691	4822
1578	1626	4827
1629	1523	4831
1631	1505	4836
1612	1536	4841
1601	1630	4845
1549	1571	4850
1539	1502	4854
1561	1500	4859
1538	1523	4864
1551	1597	4869
1528	1494	4874
1434	1509	4878
1459	1505	4883
1468	1476	4887
1439	1513	4892
1406	1571	4897
1429	1546	4901
1442	1547	4907
1457	1558	4911
1492	1490	4916
1448	1497	4920
1430	1530	4925
1434	1478	4930
1531	1468	4934
1560	1466	4939
1467	1535	4943
1419	1514	4948
1388	1532	4953
1407	1612	4958
1528	1574	4963
1539	1595	4967
1484	1554	4972
1429	1516	4976
1377	1561	4981
1362	1601	4986
1396	1601	4990
1441	1551	4996
1456	1537	5000
1456	1538	5005
1447	1581	5009
1501	1649	5014
1479	1624	5019
1416	1589	5023
1373	1586	5028
1354	1597	5032
1344	1625	5038
1359	1661	5042
1399	1649	5047
1433	1622	5052
1481	1608	5056
1515	1612	5061
1540	1599	5065
1531	1598	5070
1505	1617	5075
1502	1600	5080
1484	1578	5085
1466	1578	5089
1453	1546	5094
1447	1534	5098
1454	1509	5103
1469	1499	5108
1519	1500	5112
1569	1517	5117
1629	1516	5122
1650	1525	5127
1603	1494	5132
1561	1506	5136
1533	1530	5141
1509	1487	5145
1491	1406	5150
1489	1370	5154
1485	1356	5159
1494	1369	5165
1532	1404	5169
1563	1386	5174
1587	1381	5178
1586	1394	5183
1568	1457	5187
1568	1479	5192
1546	1422	5197
1506	1383	5201
1472	1389	5207
1474	1369	5211
1508	1452	5216
1564	1317	5221
1583	1258	5225
1609	1248	5230
1621	1312	5234
1589	1376	5239
1540	1324	5243
1513	1300	5249
1479	1318	5254
1451	1401	5258
1446	1368	5263
1471	1332	5267
1490	1272	5272
1518	1258	5276
1545	1292	5281
1534	1408	5286
1509	1336	5291
1492	1300	5296
1487	1358	5300
1501	1421	5305
1493	1383	5310
1460	1354	5314
1432	1378	5319
1398	1343	5323
1405	1321	5328
1445	1301	5332
1491	1289	5338
1523	1338	5343
1543	1422	5347
1568	1389	5352
1578	1343	5356
1546	1380	5361
1511	1386	5366
1489	1294	5370
1508	1190	5376
1517	1141	5380
1510	1138	5385
1504	1172	5389
1506	1280	5394
1499	1286	5399
1488	1219	5403
1477	1214	5408
1487	1309	5412
1532	1449	5417
1568	1335	5422
1600	1254	5427
1605	1217	5432
1570	1215	5436
1506	1304	5441
1511	1365	5445
1557	1300	5450
1591	1254	5455
1598	1270	5459
1605	1344	5465
1571	1382	5469
1542	1361	5474
1521	1366	5478
1517	1327	5483
1511	1289	5488
1468	1209	5492
1453	1192	5497
1451	1214	5501
1428	1211	5507
1396	1254	5511
1417	1283	5516
1489	1275	5521
1520	1290	5525
1534	1322	5530
1535	1318	5534
1535	1303	5539
1524	1302	5544
1494	1307	5549
1437	1313	5554
1421	1308	5558
1418	1380	5563
1412	1530	5567
1443	1463	5572
1461	1399	5577
1469	1385	5581
1471	1406	5586
1456	1506	5591
1441	1517	5596
1456	1437	5601
1457	1401	5605
1464	1492	5610
1467	1601	5614
1432	1534	5619
1429	1407	5623
1459	1370	5628
1489	1403	5634
1506	1523	5638
1521	1470	5643
1527	1447	5647
1513	1439	5652
1490	1461	5656
1461	1600	5661
1416	1654	5666
1415	1588	5670
1453	1522	5676
1499	1512	5680
1513	1621	5685
1527	1663	5690
1541	1589	5694
1521	1597	5699
1464	1590	5703
1444	1632	5708
1457	1759	5712
1463	1780	5718
1475	1671	5723
1489	1711	5727
1502	1749	5732
1514	1608	5736
1516	1524	5741
1572	1513	5745
1583	1676	5750
1577	1843	5755
1511	1746	5760
1486	1636	5765
1490	1717	5769
1458	1638	5774
1436	1552	5779
1518	1662	5783
1532	1607	5788
1568	1493	5792
1615	1481	5797
1644	1569	5801
1625	1727	5807
1620	1694	5812
1626	1650	5816
1561	1636	5821
1493	1589	5825
1523	1697	5830
1587	1687	5835
1531	1692	5839
1451	1685	5844
1473	1581	5849
1613	1666	5854
1703	1688	5858
1644	1669	5863
1558	1600	5868
1470	1632	5872
1428	1652	5877
1443	1634	5881
1560	1731	5886
1602	1656	5891
1563	1640	5896
1578	1637	5901
1668	1682	5905
1650	1678	5910
1555	1653	5914
1499	1721	5919
1513	1813	5924
1508	1782	5928
1480	1669	5934
1513	1613	5938
1621	1611	5943
1631	1739	5947
1602	1791	5952
1515	1735	5957
1494	1664	5961
1558	1679	5966
1577	1714	5970
1535	1676	5976
1526	1620	5980
1560	1605	5985
1577	1677	5990
1572	1690	5994
1533	1711	5999
1544	1646	6003
1568	1610	6008
1612	1600	6013
1637	1615	6018
1653	1640	6023
1645	1671	6027
1620	1562	6032
1660	1549	6036
1668	1577	6041
1606	1609	6046
1611	1632	6050
1574	1591	6055
1542	1614	6060
1603	1579	6065
1644	1607	6070
1599	1589	6074
1573	1665	6079
1636	1661	6083
1677	1586	6088
1624	1578	6092
1514	1590	6097
1485	1654	6103
1467	1730	6107
1458	1673	6112
1472	1642	6116
1460	1653	6121
1446	1705	6125
1450	1730	6130
1526	1728	6135
1543	1696	6139
1496	1670	6145
1472	1660	6149
1462	1686	6154
1476	1762	6159
1482	1735	6163
1450	1746	6168
1430	1729	6172
1458	1707	6177
1458	1651	6181
1459	1624	6187
1458	1605	6192
1455	1605	6196
1465	1620	6201
1476	1643	6205
1481	1659	6210
1473	1672	6214
1476	1680	6219
1472	1691	6224
1484	1661	6228
1483	1651	6234
1456	1637	6238
1478	1643	6243
1514	1654	6248
1510	1655	6252
1481	1638	6257
1438	1595	6261
1413	1579	6266
1413	1572	6270
1418	1569	6276
1435	1563	6281
1481	1585	6285
1513	1575	6290
1527	1604	6294
1518	1538	6299
1518	1535	6304
1519	1465	6308
1492	1431	6313
1471	1419	6318
1460	1446	6323
1471	1468	6327
1501	1455	6332
1528	1428	6337
1554	1429	6341
1582	1451	6346
1581	1502	6350
1583	1461	6355
1605	1499	6360
1574	1572	6365
1530	1432	6370
1496	1374	6374
1444	1342	6379
1425	1311	6383
1462	1313	6388
1511	1401	6393
1553	1452	6397
1587	1368	6403
1574	1311	6407
1576	1333	6412
1577	1458	6416
1560	1434	6421
1530	1315	6426
1498	1273	6430
1465	1289	6435
1424	1368	6439
1407	1324	6445
1444	1275	6449
1467	1257	6454
1485	1279	6459
1540	1424	6463
1559	1514	6468
1543	1375	6472
1523	1290	6477
1494	1322	6482
1437	1438	6487
1426	1328	6492
1421	1235	6496
1430	1195	6501
1423	1216	6505
1444	1266	6510
1503	1311	6515
1520	1255	6519
1503	1215	6524
1502	1311	6529
1500	1426	6534
1494	1311	6538
1486	1233	6543
1456	1219	6548
1431	1242	6552
1461	1303	6557
1460	1296	6561
1444	1263	6566
1463	1246	6572
1467	1334	6576
1465	1401	6581
1470	1274	6585
1461	1180	6590
1468	1157	6594
1473	1199	6599
1478	1378	6604
1469	1356	6608
1508	1250	6614
1493	1170	6618
1473	1156	6623
1519	1260	6628
1540	1279	6632
1553	1192	6637
1552	1183	6641
1557	1199	6646
1529	1311	6650
1519	1416	6656
1528	1306	6661
1545	1275	6665
1533	1386	6670
1531	1456	6674
1538	1379	6679
1479	1291	6683
1455	1229	6688
1431	1251	6693
1434	1331	6697
1431	1325	6703
1392	1300	6707
1381	1305	6712
1429	1345	6717
1464	1487	6721
1506	1466	6726
1509	1411	6730
1472	1387	6735
1408	1426	6739
1400	1546	6745
1433	1540	6750
1458	1536	6754
1445	1494	6759
1412	1544	6763
1414	1636	6768
1425	1524	6772
1426	1486	6777
1389	1547	6782
1382	1548	6787
1403	1625	6792
1435	1605	6796
1479	1458	6801
1464	1538	6806
1400	1605	6810
1371	1493	6815
1381	1447	6819
1403	1443	6824
1419	1410	6829
1466	1489	6834
1482	1605	6839
1451	1503	6843
1481	1469	6848
1499	1466	6852
1442	1539	6857
1401	1645	6861
1371	1659	6866
1363	1656	6872
1405	1569	6876
1442	1498	6881
1449	1491	6885
1457	1565	6890
1492	1797	6895
1449	1796	6899
1426	1639	6904
1433	1597	6908
1440	1735	6914
1469	1634	6918
1554	1539	6923
1559	1564	6928
1505	1682	6932
1476	1590	6937
1494	1500	6941
1511	1454	6946
1498	1556	6950
1449	1675	6956
1441	1473	6961
1469	1387	6965
1503	1420	6970
1501	1465	6974
1536	1484	6979
1600	1494	6984
1628	1656	6988
1624	1768	6993
1585	1636	6998
1509	1519	7003
1467	1503	7007
1438	1541	7012
1446	1540	7017
1485	1575	7021
1528	1653	7026
1543	1623	7030
1502	1600	7035
1539	1646	7040
1625	1701	7045
1604	1593	7050
1556	1573	7054
1501	1575	7059
1486	1626	7063
1497	1574	7068
1470	1534	7073
1456	1621	7077
1421	1687	7083
1439	1546	7087
1460	1517	7092
1464	1485	7096
1477	1503	7101
1493	1570	7106
1534	1637	7110
1580	1529	7115
1542	1480	7119
1517	1487	7124
1512	1479	7130
1478	1500	7134
1468	1531	7139
1487	1398	7143
1528	1372	7148
1519	1420	7152
1482	1503	7157
1544	1486	7162
1582	1445	7166
1547	1447	7172
1536	1513	7176
1590	1491	7181
1556	1425	7185
1469	1359	7190
1430	1413	7195
1455	1412	7199
1503	1434	7204
1589	1484	7208
1658	1427	7214
1673	1405	7219
1709	1488	7223
1657	1557	7228
1595	1515	7232
1527	1465	7237
1481	1395	7241
1467	1403	7246
1442	1414	7251
1432	1447	7256
1441	1546	7261
1506	1549	7265
1512	1485	7270
1516	1470	7274
1529	1531	7279
1509	1592	7284
1514	1592	7288
1480	1551	7293
1441	1540	7298
1451	1571	7303
1436	1573	7308
1427	1610	7312
1413	1606	7317
1393	1566	7321
1391	1526	7326
1410	1534	7330
1423	1528	7335
1429	1529	7341
1426	1557	7345
1436	1576	7350
1411	1558	7354
1388	1520	7359
1384	1503	7364
1389	1501	7368
1399	1521	7373
1437	1518	7377
1482	1536	7383
1491	1507	7387
1450	1498	7392
1416	1557	7397
1403	1543	7401
1399	1448	7406
1393	1427	7410
1385	1412	7415
1381	1414	7419
1397	1491	7425
1432	1442	7430
1459	1394	7434
1465	1385	7439
1474	1407	7443
1462	1426	7448
1438	1376	7453
1413	1344	7457
1395	1346	7462
1360	1444	7467
1363	1433	7472
1407	1372	7476
1439	1306	7481
1457	1292	7486
1533	1324	7490
1576	1346	7495
1536	1338	7499
1496	1343	7504
1446	1395	7508
1398	1391	7514
1384	1352	7519
1402	1380	7523
1445	1379	7528
1453	1401	7532
1437	1443	7537
1461	1303	7542
1536	1237	7546
1568	1240	7552
1540	1268	7556
1503	1309	7561
1457	1301	7565
1434	1266	7570
1445	1262	7575
1425	1396	7579
1423	1305	7584
1434	1234	7588
1448	1184	7593
1433	1166	7598
1481	1235	7603
1516	1344	7608
1500	1233	7612
1461	1176	7617
1405	1185	7621
1346	1302	7626
1425	1228	7631
1507	1147	7635
1510	1164	7641
1478	1133	7645
1448	1224	7650
1462	1340	7654
1449	1222	7659
1414	1185	7664
1409	1146	7668
1451	1153	7673
1442	1193	7677
1435	1179	7683
1487	1188	7688
1502	1275	7692
1487	1257	7697
1451	1222	7701
1403	1173	7706
1398	1190	7710
1431	1306	7715
1446	1338	7720
1433	1210	7725
1404	1135	7730
1409	1120	7734
1461	1209	7739
1550	1255	7743
1550	1140	7748
1518	1115	7753
1491	1140	7757
1453	1284	7762
1435	1399	7767
1446	1263	7772
1460	1166	7777
1461	1131	7781
1476	1214	7786
1534	1318	7790
1565	1241	7795
1536	1209	7799
1504	1203	7804
1469	1297	7810
1467	1407	7814
1479	1334	7819
1502	1288	7823
1516	1271	7828
1504	1295	7832
1496	1312	7837
1496	1307	7842
1499	1327	7846
1485	1472	7852
1471	1540	7856
1499	1474	7861
1494	1455	7866
1544	1478	7870
1605	1458	7875
1587	1425	7879
1514	1297	7884
1433	1265	7888
1386	1290	7894
1383	1344	7899
1394	1479	7903
1408	1568	7908
1463	1617	7912
1516	1587	7917
1515	1513	7922
1452	1444	7926
1432	1400	7931
1450	1459	7936
1472	1524	7941
1527	1425	7945
1536	1449	7950
1543	1424	7955
1546	1480	7959
1517	1548	7964
1541	1729	7968
1535	1800	7973
1519	1690	7977
1495	1645	7983
1480	1585	7988
1496	1548	7992
1517	1603	7997
1526	1656	8001
1535	1626	8006
1521	1535	8011
1535	1549	8015
1567	1624	8020
1516	1709	8025
1514	1678	8030
1485	1680	8034
1435	1660	8039
1420	1645	8044
1440	1665	8048
1518	1687	8053
1520	1593	8057
1506	1584	8062
1471	1759	8068
1474	1760	8072
1527	1681	8077
1571	1659	8081
1580	1720	8086
1553	1707	8090
1522	1542	8095
1485	1517	8100
1442	1606	8104
1430	1657	8110
1495	1627	8114
1550	1494	8119
1599	1572	8123
1566	1665	8128
1556	1544	8133
1531	1560	8137
1537	1644	8142
1508	1616	8146
1420	1571	8152
1486	1616	8157
1656	1775	8161
1684	1743	8166
1557	1643	8170
1469	1599	8175
1578	1600	8179
1642	1616	8184
1610	1657	8189
1540	1756	8194
1442	1696	8199
1424	1579	8203
1426	1525	8208
1501	1533	8212
1524	1545	8217
1492	1585	8222
1509	1696	8226
1628	1634	8231
1701	1755	8236
1637	1800	8241
1519	1628	8246
1476	1586	8250
1561	1648	8255
1644	1703	8259
1632	1658	8264
1567	1654	8268
1503	1646	8273
1459	1566	8279
1479	1574	8283
1526	1507	8288
1512	1494	8292
1487	1506	8297
1515	1545	8301
1582	1649	8306
1607	1698	8311
1618	1657	8315
1639	1651	8321
1638	1701	8325
1575	1687	8330
1519	1644	8335
1554	1614	8339
1568	1629	8344
1533	1795	8348
1593	1714	8353
1637	1631	8357
1614	1609	8363
1580	1668	8368
1567	1768	8372
1596	1685	8377
1608	1598	8381
1590	1641	8386
1556	1572	8390
1531	1586	8395
1538	1595	8400
1581	1659	8404
1596	1595	8410
1586	1579	8414
1527	1594	8419
1494	1640	8424
1478	1713	8428
1468	1779	8433
1467	1770	8437
1444	1679	8442
1469	1646	8446
1505	1654	8452
1541	1684	8457
1568	1711	8461
1544	1781	8466
1501	1763	8470
1473	1709	8475
1471	1670	8479
1529	1649	8484
1556	1671	8489
1513	1637	8494
1470	1636	8499
1455	1635	8503
1456	1640	8508
1456	1635	8513
1468	1646	8517
1481	1643	8522
1474	1650	8526
1486	1656	8531
1497	1666	8536
1509	1671	8541
1515	1684	8546
1504	1685	8550
1494	1700	8555
1506	1703	8559
1519	1665	8564
1502	1625	8569
1478	1609	8573
1473	1629	8579
1479	1692	8583
1468	1619	8588
1476	1559	8592
1482	1514	8597
1477	1507	8602
1490	1525	8606
1536	1541	8611
1560	1516	8615
1567	1491	8621
1540	1541	8625
1509	1569	8630
1519	1601	8635
1517	1499	8639
1513	1383	8644
1503	1345	8648
1481	1366	8653
1488	1495	8658
1527	1425	8663
1533	1356	8668
1509	1342	8672
1503	1368	8677
1535	1463	8681
1587	1441	8686
1603	1391	8691
1580	1415	8695
1534	1335	8700
1489	1293	8705
1484	1319	8710
1492	1321	8715
1502	1324	8719
1514	1344	8724
1486	1532	8728
1480	1433	8733
1465	1301	8737
1446	1267	8742
1491	1271	8748
1558	1339	8752
1574	1323	8757
1533	1309	8761
1479	1261	8766
1447	1200	8770
1469	1204	8775
1458	1307	8780
1466	1345	8784
1485	1342	8790
1484	1319	8794
1501	1338	8799
1473	1243	8804
1407	1192	8808
1377	1157	8813
1392	1129	8817
1441	1135	8822
1497	1169	8826
1518	1287	8832
1522	1367	8837
1502	1287	8841
1457	1191	8846
1398	1285	8850
1467	1300	8855
1529	1182	8859
1548	1166	8864
1535	1171	8869
1485	1164	8873
1424	1157	8879
1359	1204	8883
1337	1295	8888
1372	1266	8893
1430	1229	8897
1496	1213	8902
1472	1380	8906
1478	1392	8911
1513	1274	8915
1576	1268	8921
1588	1273	8926
1539	1239	8930
1505	1267	8935
1484	1354	8939
1451	1399	8944
1436	1444	8949
1427	1444	8953
1441	1258	8958
1437	1207	8963
1404	1217	8968
1444	1305	8972
1548	1434	8977
1581	1346	8982
1529	1283	8986
1473	1293	8991
1415	1355	8995
1377	1430	9000
1403	1489	9005
1422	1509	9010
1421	1440	9015
1377	1394	9019
1443	1476	9024
1491	1587	9028
1477	1474	9033
1454	1438	9038
1442	1450	9042
1444	1555	9048
1428	1652	9052
1434	1630	9057
1393	1615	9061
1404	1641	9066
1431	1609	9071
1431	1512	9075
1399	1505	9080
1396	1392	9084
1447	1376	9090
1493	1394	9094
1503	1435	9099
1517	1553	9104
1499	1592	9108
1494	1555	9113
1504	1600	9117
1468	1614	9122
1442	1609	9127
1364	1636	9132
1359	1605	9137
1447	1585	9141
1555	1575	9146
1572	1604	9150
1607	1611	9155
1628	1606	9160
1683	1602	9164
1684	1641	9169
1622	1700	9174
1549	1807	9179
1491	1805	9184
1450	1765	9188
1467	1718	9193
1489	1680	9197
1511	1627	9202
1490	1670	9206
1456	1663	9211
1490	1631	9217
1484	1597	9221
1443	1626	9226
1462	1614	9230
1515	1634	9235
1531	1707	9239
1467	1613	9244
1415	1580	9249
1408	1580	9253
1430	1551	9259
1450	1518	9263
1494	1534	9268
1491	1599	9273
1481	1735	9277
1513	1651	9282
1659	1635	9286
1698	1729	9291
1607	1691	9295
1538	1582	9300
1548	1568	9306
1550	1594	9310
1496	1664	9315
1512	1710	9319
1540	1685	9324
1522	1793	9328
1495	1687	9333
1495	1660	9338
1526	1670	9342
1580	1652	9348
1584	1617	9352
1539	1643	9357
1524	1673	9362
1551	1681	9366
1540	1696	9371
1514	1804	9375
1508	1770	9380
1466	1714	9384
1477	1685	9390
1550	1690	9395
1618	1674	9399
1598	1749	9404
1524	1671	9408
1445	1673	9413
1392	1705	9417
1409	1704	9422
1432	1754	9427
1497	1748	9432
1551	1665	9437
1583	1627	9441
1636	1647	9446
1646	1638	9451
1612	1695	9455
1570	1703	9460
1560	1651	9464
1576	1656	9469
1608	1714	9474
1637	1734	9479
1618	1649	9484
1574	1605	9488
1625	1656	9493
1630	1733	9497
1580	1713	9502
1469	1706	9506
1391	1696	9511
1361	1724	9517
1391	1661	9521
1428	1652	9526
1463	1699	9530
1526	1744	9535
1583	1804	9540
1520	1739	9544
1448	1750	9549
1441	1736	9553
1483	1722	9559
1491	1726	9563
1432	1748	9568
1394	1750	9573
1387	1748	9577
1399	1761	9582
1398	1770	9586
1407	1775	9591
1421	1782	9596
1455	1762	9601
1488	1761	9606
1490	1766	9610
1473	1760	9615
1468	1759	9619
1468	1755	9624
1504	1772	9629
1546	1793	9633
1508	1729	9638
1462	1700	9643
1442	1681	9648
1428	1682	9652
1407	1687	9657
1422	1704	9662
1448	1658	9666
1501	1632	9671
1531	1620	9675
1544	1639	9680
1515	1719	9686
1482	1605	9690
1452	1552	9695
1435	1527	9699
1421	1573	9704
1410	1523	9708
1434	1522	9713
1470	1451	9718
1482	1453	9722
1478	1494	9728
1521	1433	9732
1555	1411	9737
1561	1428	9741
1572	1540	9746
1552	1543	9751
1543	1470	9755
1536	1376	9760
1516	1349	9764
1486	1354	9769
1468	1350	9775
1465	1369	9779
1462	1386	9784
1493	1423	9788
1552	1432	9793
1575	1412	9797
1584	1380	9802
1529	1395	9807
1531	1439	9811
1509	1508	9817
1459	1426	9821
1446	1264	9826
1434	1212	9831
1393	1203	9835
1389	1278	9840
1419	1357	9844
1476	1280	9849
1484	1229	9853
1526	1236	9859
1553	1293	9864
1510	1316	9868
1470	1279	9873
1450	1229	9877
1433	1197	9882
1419	1303	9886
1383	1358	9891
1378	1230	9896
1410	1200	9901
1463	1272	9906
1529	1465	9910
1567	1306	9915
1554	1182	9920
1511	1127	9924
1462	1243	9929
1453	1295	9933
1456	1173	9938
1452	1099	9943
1424	1084	9948
1407	1148	9953
1432	1352	9957
1431	1275	9962
1434	1121	9966
1459	1094	9971
1474	1104	9976
1459	1143	9980
1463	1197	9986
1493	1193	9990
1487	1196	9995
1480	1217	9999
1517	1266	10004
1545	1298	10009
1561	1315	10013
1557	1322	10018
1552	1345	10023
1510	1480	10028
1468	1522	10033
1456	1348	10037
1468	1308	10042
1470	1345	10047
1458	1325	10051
1445	1263	10056
1429	1233	10061
1426	1254	10065
1421	1418	10071
1402	1501	10075
1387	1342	10080
1404	1295	10085
1424	1331	10089
1419	1261	10094
1403	1270	10099
1396	1294	10103
1416	1320	10108
1486	1390	10113
1528	1584	10118
1518	1603	10123
1473	1461	10127
1425	1411	10132
1383	1368	10137
1383	1374	10141
1392	1457	10146
1369	1543	10151
1396	1505	10156
1427	1581	10161
1427	1673	10165
1425	1569	10170
1377	1616	10175
1379	1581	10179
1439	1568	10184
1524	1726	10189
1538	1575	10193
1484	1510	10199
1347	1604	10203
1283	1505	10208
1307	1442	10213
1355	1451	10217
1377	1571	10222
1396	1530	10227
1426	1618	10231
1536	1642	10236
1509	1558	10241
1440	1552	10246
1363	1574	10251
1434	1462	10255
1546	1498	10260
1585	1569	10265
1569	1423	10269
1551	1480	10274
1542	1572	10279
1548	1502	10284
1511	1544	10289
1525	1538	10293
1539	1515	10298
1491	1476	10303
1489	1584	10307
1480	1581	10312
1468	1581	10317
1456	1660	10321
1512	1596	10327
1582	1621	10331
1655	1566	10336
1642	1675	10341
1557	1673	10345
1543	1589	10350
1561	1577	10355
1513	1558	10359
1460	1646	10364
1433	1648	10369
1491	1607	10374
1524	1658	10379
1488	1707	10383
1471	1639	10388
1481	1674	10393
1507	1665	10397
1470	1615	10402
1500	1668	10407
1523	1695	10412
1481	1647	10417
1458	1725	10421
1463	1695	10426
1465	1545	10431
1528	1555	10435
1630	1668	10440
1608	1624	10445
1594	1615	10449
1588	1738	10455
1566	1722	10459
1548	1618	10464
1435	1681	10469
1391	1660	10473
1465	1614	10478
1545	1655	10483
1645	1712	10487
1664	1652	10492
1539	1588	10497
1404	1608	10502
1361	1711	10507
1422	1771	10511
1485	1710	10516
1498	1583	10521
1571	1564	10525
1614	1583	10530
1619	1639	10535
1622	1699	10540
1666	1745	10545
1635	1615	10549
1599	1555	10554
1539	1610	10559
1520	1602	10563
1527	1572	10568
1497	1530	10573
1461	1606	10577
1444	1623	10583
1529	1551	10587
1547	1537	10592
1488	1653	10597
1439	1741	10601
1476	1653	10606
1541	1586	10611
1524	1568	10615
1461	1601	10620
1424	1743	10625
1430	1675	10630
1401	1602	10635
1406	1596	10639
1404	1613	10644
1397	1624	10649
1410	1644	10653
1423	1659	10658
1434	1671	10662
1447	1720	10668
1481	1722	10673
1469	1686	10677
1444	1672	10682
1426	1672	10687
1408	1694	10691
1396	1722	10696
1384	1742	10701
1413	1787	10705
1447	1756	10711
1473	1728	10715
1480	1698	10720
1460	1695	10725
1470	1697	10729
1507	1716	10734
1483	1784	10739
1450	1757	10743
1428	1701	10748
1411	1686	10753
1402	1633	10758
1406	1600	10763
1451	1586	10767
1474	1590	10772
1494	1643	10777
1515	1669	10781
1542	1585	10786
1539	1559	10790
1507	1570	10796
1472	1659	10801
1458	1565	10805
1456	1550	10810
1457	1512	10815
1484	1522	10819
1510	1517	10824
1522	1520	10829
1559	1497	10833
1618	1490	10839
1590	1491	10843
1561	1489	10848
1521	1519	10853
1499	1601	10857
1493	1556	10862
1486	1413	10867
1484	1311	10871
1496	1286	10876
1509	1305	10881
1509	1360	10886
1528	1417	10891
1532	1378	10895
1514	1474	10900
1499	1466	10905
1534	1392	10909
1529	1324	10914
1503	1279	10918
1486	1305	10924
1526	1323	10929
1545	1255	10933
1502	1254	10938
1473	1350	10943
1455	1328	10947
1454	1282	10952
1497	1232	10957
1517	1254	10961
1504	1335	10967
1498	1382	10971
1456	1273	10976
1429	1159	10981
1451	1122	10985
1489	1212	10990
1525	1257	10995
1521	1216	10999
1492	1176	11004
1474	1134	11009
1473	1161	11014
1473	1282	11019
1446	1345	11023
1435	1270	11028
1432	1178	11033
1458	1127	11037
1494	1120	11042
1500	1180	11046
1465	1309	11052
1474	1252	11057
1559	1239	11061
1609	1285	11066
1625	1285	11071
1628	1225	11075
1601	1210	11080
1581	1177	11085
1537	1201	11089
1522	1290	11095
1514	1308	11099
1506	1310	11104
1494	1354	11109
1513	1348	11113
1487	1326	11118
1450	1311	11123
1435	1358	11127
1420	1423	11132
1404	1340	11137
1387	1319	11142
1392	1328	11147
1433	1335	11151
1486	1346	11156
1524	1370	11161
1507	1365	11165
1472	1334	11170
1435	1349	11174
1429	1481	11180
1437	1704	11185
1396	1573	11189
1379	1405	11194
1393	1325	11199
1403	1305	11203
1423	1358	11208
1373	1430	11213
1338	1390	11217
1351	1393	11223
1387	1469	11227
1405	1598	11232
1426	1466	11237
1430	1465	11241
1472	1530	11246
1506	1485	11251
1520	1435	11255
1494	1499	11260
1443	1516	11265
1400	1453	11270
1366	1434	11275
1420	1495	11279
1422	1485	11284
1407	1619	11289
1378	1684	11293
1389	1542	11298
1397	1441	11302
1450	1450	11308
1501	1471	11313
1531	1489	11317
1444	1523	11322
1421	1447	11327
1446	1511	11331
1480	1494	11336
1467	1516	11341
1453	1699	11345
1412	1633	11351
1345	1462	11355
1394	1422	11360
1443	1515	11365
1504	1516	11369
1521	1382	11374
1569	1372	11379
1596	1419	11383
1586	1559	11388
1596	1615	11393
1516	1603	11398
1405	1609	11403
1382	1508	11407
1416	1498	11412
1464	1651	11417
1473	1554	11421
1568	1383	11426
1675	1322	11430
1583	1357	11436
1502	1485	11441
1474	1467	11445
1469	1351	11450
1414	1397	11455
1362	1575	11459
1359	1565	11464
1388	1456	11469
1453	1396	11473
1563	1489	11479
1544	1508	11483
1558	1511	11488
1571	1556	11493
1522	1595	11497
1482	1513	11502
1591	1450	11507
1695	1445	11511
1686	1504	11516
1600	1550	11521
1581	1608	11526
1628	1629	11531
1620	1533	11535
1605	1451	11540
1552	1482	11545
1474	1511	11549
1454	1537	11554
1463	1545	11558
1564	1543	11564
1648	1593	11569
1546	1630	11573
1465	1589	11578
1412	1552	11583
1438	1495	11587
1504	1496	11592
1605	1558	11597
1669	1601	11601
1638	1663	11607
1630	1549	11611
1601	1526	11616
1616	1600	11621
1637	1568	11625
1637	1594	11630
1655	1588	11635
1697	1505	11639
1697	1608	11644
1649	1538	11649
1552	1495	11654
1475	1401	11659
1428	1389	11663
1419	1395	11668
1430	1464	11673
1419	1500	11677
1488	1547	11682
1488	1545	11686
1502	1436	11692
1587	1384	11697
1599	1436	11701
1534	1552	11706
1459	1555	11711
1485	1485	11715
1512	1463	11720
1424	1433	11725
1403	1459	11729
1418	1507	11735
1455	1491	11739
1528	1540	11744
1509	1479	11749
1399	1485	11753
1400	1472	11758
1464	1469	11763
1465	1560	11767
1485	1709	11772
1536	1604	11777
1523	1546	11782
1472	1537	11787
1443	1561	11791
1429	1589	11796
1437	1583	11801
1423	1589	11805
1451	1599	11810
1515	1597	11815
1552	1608	11820
1531	1650	11825
1462	1647	11829
1439	1722	11834
1453	1649	11839
1453	1605	11843
1435	1587	11848
1442	1594	11853
1519	1636	11857
1538	1660	11863
1507	1622	11867
1492	1592	11872
1491	1595	11877
1479	1595	11881
1488	1612	11886
1532	1625	11891
1551	1602	11895
1562	1584	11900
1560	1579	11905
1570	1592	11910
1595	1617	11915
1637	1648	11919
1659	1638	11924
1648	1531	11929
1617	1481	11933
1580	1491	11938
1518	1513	11943
1538	1530	11948
1576	1505	11953
1591	1442	11957
1596	1419	11962
1596	1434	11967
1635	1545	11971
1656	1472	11976
1642	1457	11981
1612	1415	11985
1566	1456	11991
1532	1427	11995
1553	1342	12000
1547	1343	12005
1525	1293	12009
1506	1319	12014
1476	1433	12019
1507	1359	12023
1552	1293	12028
1577	1256	12033
1576	1258	12038
1565	1319	12043
1563	1396	12047
1531	1367	12052
1530	1313	12057
1544	1414	12061
1554	1464	12066
1561	1359	12070
1517	1255	12076
1511	1190	12081
1496	1270	12085
1411	1365	12090
1406	1215	12095
1466	1185	12099
1482	1182	12104
1488	1214	12109
1519	1220	12113
1537	1236	12119
1525	1192	12123
1518	1224	12128
1523	1238	12133
1561	1276	12137
1571	1144	12142
1602	1088	12147
1610	1098	12151
1569	1277	12156
1520	1277	12161
1477	1197	12166
1478	1107	12171
1493	1085	12175
1460	1114	12180
1486	1185	12185
1615	1230	12189
1669	1197	12194
1661	1191	12198
1543	1213	12204
1439	1311	12209
1409	1377	12213
1398	1271	12218
1385	1204	12223
1375	1261	12227
1367	1366	12232
1370	1262	12237
1382	1201	12241
1396	1206	12247
1378	1294	12251
1387	1390	12256
1431	1293	12261
1480	1184	12265
1515	1155	12270
1487	1152	12275
1449	1376	12279
1416	1352	12284
1388	1183	12289
1378	1095	12294
1363	1091	12299
1371	1123	12303
1390	1174	12308
1402	1208	12313
1443	1219	12317
1447	1248	12322
1504	1329	12326
1516	1535	12332
1508	1518	12337
1440	1331	12341
1400	1290	12346
1376	1329	12351
1370	1505	12355
1366	1532	12360
1360	1359	12365
1366	1275	12369
1388	1265	12375
1395	1307	12379
1421	1377	12384
1427	1422	12389
1429	1379	12393
1437	1385	12398
1428	1531	12403
1382	1690	12407
1385	1535	12412
1425	1395	12417
1501	1360	12422
1558	1373	12427
1597	1458	12431
1530	1477	12436
1492	1460	12441
1457	1458	12445
1438	1461	12450
1426	1587	12455
1424	1721	12460
1424	1680	12465
1500	1553	12469
1560	1489	12474
1540	1521	12479
1526	1482	12483
1523	1409	12488
1555	1405	12493
1615	1436	12497
1569	1422	12503
1460	1426	12507
1409	1498	12512
1425	1682	12517
1469	1624	12521
1470	1612	12526
1456	1548	12531
1429	1440	12535
1428	1409	12540
1478	1411	12545
1508	1446	12550
1442	1469	12555
1417	1496	12559
1482	1507	12564
1562	1450	12569
1565	1413	12573
1483	1500	12578
1462	1587	12582
1445	1483	12588
1431	1434	12593
1426	1367	12597
1522	1471	12602
1643	1583	12607
1584	1454	12611
1492	1390	12616
1488	1486	12621
1551	1594	12625
1541	1489	12631
1520	1443	12635
1488	1555	12640
1474	1558	12645
1547	1567	12649
1551	1631	12654
1514	1552	12659
1522	1632	12663
1456	1605	12668
1415	1465	12673
1487	1652	12678
1517	1799	12683
1550	1577	12687
1587	1477	12692
1633	1526	12697
1653	1599	12701
1618	1614	12706
1579	1549	12710
1556	1557	12716
1487	1539	12721
1465	1641	12725
1500	1647	12730
1538	1602	12735
1552	1570	12739
1518	1591	12744
1503	1724	12749
1501	1701	12753
1558	1604	12759
1573	1568	12763
1503	1601	12768
1442	1693	12773
1433	1673	12777
1411	1649	12782
1454	1679	12787
1565	1724	12791
1506	1679	12796
1434	1743	12801
1402	1720	12806
1413	1638	12811
1429	1635	12815
1436	1675	12820
1392	1669	12825
1478	1686	12829
1652	1678	12834
1628	1672	12838
1470	1657	12844
1431	1655	12849
1470	1755	12853
1450	1762	12858
1386	1632	12863
1365	1537	12867
1435	1524	12872
1523	1547	12877
1506	1551	12881
1467	1555	12887
1454	1622	12891
1494	1744	12896
1605	1760	12901
1647	1687	12905
1533	1563	12910
1454	1546	12915
1385	1563	12919
1392	1606	12924
1399	1574	12929
1409	1550	12934
1460	1568	12939
1554	1653	12943
1578	1615	12948
1531	1624	12953
1509	1635	12957
1498	1602	12962
1503	1597	12966
1556	1664	12972
1595	1663	12977
1559	1642	12981
1512	1685	12986
1504	1646	12991
1537	1610	12995
1541	1667	13000
1530	1704	13005
1509	1709	13009
1492	1669	13015
1487	1641	13019
1499	1655	13024
1527	1700	13029
1528	1759	13033
1517	1778	13038
1502	1736	13043
1496	1720	13047
1492	1802	13052
1501	1782	13057
1532	1723	13062
1543	1712	13067
1515	1692	13071
1508	1698	13076
1547	1715	13081
1557	1754	13085
1525	1775	13090
1501	1793	13094
1510	1718	13100
1505	1694	13105
1494	1703	13109
1512	1695	13114
1539	1656	13119
1560	1676	13123
1573	1679	13128
1622	1674	13133
1682	1695	13137
1646	1687	13143
1560	1632	13147
1520	1594	13152
1505	1558	13157
1476	1562	13161
1493	1605	13166
1530	1617	13171
1540	1559	13175
1537	1507	13180
1553	1486	13185
1579	1525	13190
1580	1561	13195
1598	1529	13199
1606	1507	13204
1586	1524	13209
1583	1617	13213
1595	1508	13218
1591	1459	13222
1549	1403	13228
1503	1358	13233
1524	1435	13237
1638	1445	13242
1694	1382	13247
1667	1347	13251
1596	1379	13256
1534	1337	13260
1483	1312	13265
1483	1368	13271
1484	1273	13275
1466	1240	13280
1435	1228	13285
1420	1195	13289
1429	1288	13294
1429	1384	13299
1483	1276	13303
1532	1208	13308
1544	1172	13313
1538	1178	13318
1522	1226	13323
1481	1292	13327
1443	1366	13332
1434	1222	13337
1364	1177	13341
1373	1313	13346
1416	1321	13350
1452	1172	13356
1503	1123	13361
1519	1127	13365
1511	1179	13370
1496	1227	13375
1452	1223	13379
1428	1229	13384
1419	1255	13388
1411	1343	13393
1394	1510	13399
1413	1375	13403
1446	1269	13408
1442	1245	13413
1400	1383	13417
1416	1353	13422
1458	1265	13427
1485	1185	13431
1533	1203	13436
1535	1309	13441
1535	1334	13446
1563	1250	13451
1567	1197	13455
1509	1184	13460
1444	1257	13465
1414	1274	13469
1408	1234	13474
1421	1232	13478
1425	1258	13484
1396	1404	13489
1380	1512	13493
1423	1378	13498
1487	1293	13503
1541	1342	13507
1574	1507	13512
1556	1419	13516
1529	1317	13521
1505	1273	13527
1499	1304	13531
1473	1435	13536
1435	1458	13541
1436	1343	13545
1454	1277	13550
1510	1252	13555
1562	1304	13559
1591	1428	13564
1596	1425	13569
1546	1347	13574
1490	1323	13579
1488	1392	13583
1504	1515	13588
1489	1467	13593
1490	1358	13597
1535	1339	13602
1534	1354	13606
1499	1383	13612
1462	1471	13617
1454	1530	13621
1567	1513	13626
1601	1516	13631
1553	1579	13635
1514	1504	13640
1479	1581	13644
1461	1557	13649
1413	1505	13655
1454	1489	13659
1487	1472	13664
1534	1534	13669
1567	1815	13673
1525	1655	13678
1567	1496	13683
1638	1460	13687
1641	1508	13692
1580	1381	13697
1517	1364	13702
1461	1429	13707
1474	1462	13711
1446	1519	13716
1379	1596	13721
1441	1563	13725
1477	1499	13730
1492	1525	13734
1475	1545	13740
1423	1493	13745
1542	1474	13749
1571	1443	13754
1472	1556	13759
1479	1621	13763
1512	1603	13768
1568	1495	13772
1621	1447	13777
1584	1514	13783
1582	1653	13787
1574	1654	13792
1641	1633	13797
1670	1714	13801
1612	1754	13806
1529	1524	13811
1485	1444	13815
1483	1458	13820
1585	1521	13825
1551	1579	13830
1525	1562	13835
1572	1538	13839
1550	1624	13844
1480	1716	13849
1478	1624	13853
1481	1488	13858
1438	1488	13862
1443	1576	13868
1461	1627	13873
1445	1612	13877
1421	1622	13882
1475	1576	13887
1472	1588	13891
1498	1598	13896
1504	1727	13900
1513	1741	13905
1476	1663	13911
1411	1673	13915
1397	1689	13920
1382	1708	13925
1377	1708	13929
1507	1732	13934
1539	1657	13939
1545	1667	13943
1591	1659	13948
1533	1694	13953
1458	1918	13958
1414	1755	13963
1365	1585	13967
1381	1496	13972
1436	1539	13977
1474	1625	13981
1422	1618	13986
1397	1630	13990
1415	1563	13996
1499	1557	14001
1504	1588	14005
1524	1550	14010
1449	1641	14015
1375	1626	14019
1334	1598	14024
1367	1518	14028
1461	1479	14033
1531	1494	14039
1503	1566	14043
1433	1579	14048
1429	1674	14053
1542	1741	14057
1650	1696	14062
1655	1584	14067
1567	1555	14071
1499	1659	14076
1428	1690	14081
1392	1604	14086
1411	1552	14091
1447	1501	14095
1499	1532	14100
1615	1717	14105
1682	1788	14109
1643	1618	14114
1588	1550	14118
1561	1553	14124
1564	1692	14129
1505	1839	14133
1556	1723	14138
1565	1629	14143
1476	1727	14147
1458	1622	14152
1517	1581	14156
1569	1590	14161
1630	1615	14167
1626	1612	14171
1545	1593	14176
1459	1586	14181
1405	1605	14185
1383	1647	14190
1398	1654	14195
1425	1686	14199
1447	1706	14204
1421	1708	14209
1474	1700	14214
1549	1715	14219
1645	1713	14223
1684	1742	14228
1615	1737	14233
1521	1718	14237
1513	1712	14242
1549	1707	14246
1597	1713	14252
1615	1724	14257
1613	1700	14261
1618	1679	14266
1672	1666	14271
1713	1663	14275
1715	1660	14280
1656	1670	14284
1591	1702	14289
1559	1702	14295
1545	1657	14299
1524	1620	14304
1515	1615	14309
1497	1634	14313
1522	1632	14318
1528	1643	14323
1525	1547	14327
1531	1497	14332
1513	1482	14337
1509	1533	14342
1527	1622	14347
1534	1526	14351
1528	1411	14356
1499	1379	14361
1442	1382	14365
1426	1447	14370
1428	1492	14374
1446	1426	14380
1474	1407	14385
1480	1407	14389
1483	1448	14394
1504	1559	14399
1498	1477	14403
1525	1400	14408
1454	1432	14413
1454	1520	14417
1480	1426	14423
1477	1390	14427
1477	1345	14432
1471	1307	14437
1434	1346	14441
1438	1361	14446
1413	1370	14451
1421	1258	14455
1448	1220	14460
1481	1223	14465
1460	1302	14470
1398	1423	14475
1381	1287	14479
1407	1238	14484
1406	1279	14489
1387	1455	14493
1410	1343	14498
1414	1226	14502
1431	1172	14508
1430	1204	14513
1438	1415	14517
1454	1363	14522
1465	1201	14527
1486	1138	14531
1456	1148	14536
1371	1282	14540
1386	1385	14545
1419	1306	14551
1457	1188	14555
1483	1152	14560
1509	1131	14565
1499	1166	14569
1458	1181	14574
1377	1185	14579
1364	1207	14583
1382	1255	14588
1406	1305	14593
1455	1280	14598
1495	1254	14603
1510	1250	14607
1478	1334	14612
1373	1471	14617
1376	1409	14621
1433	1319	14626
1489	1250	14630
1484	1300	14636
1506	1444	14641
1549	1404	14645
1536	1320	14650
1513	1272	14655
1456	1274	14659
1371	1353	14664
1380	1349	14669
1415	1385	14673
1424	1338	14679
1415	1289	14683
1432	1348	14688
1505	1419	14693
1570	1318	14697
1570	1348	14702
1547	1357	14707
1527	1349	14711
1491	1358	14716
1481	1303	14721
1474	1336	14726
1450	1448	14731
1412	1553	14735
1395	1454	14740
1455	1313	14745
1461	1270	14749
1490	1318	14754
1443	1422	14758
1500	1402	14764
1621	1373	14769
1681	1347	14773
1665	1376	14778
1637	1473	14783
1619	1569	14787
1555	1538	14792
1494	1442	14796
1464	1377	14801
1484	1335	14807
1516	1352	14811
1554	1402	14816
1535	1485	14821
1514	1545	14825
1528	1534	14830
1469	1491	14835
1457	1493	14839
1525	1655	14844
1555	1700	14849
1528	1619	14854
1495	1512	14859
1415	1393	14863
1420	1351	14868
1494	1427	14873
1510	1588	14877
1435	1509	14882
1488	1412	14886
1623	1397	14892
1676	1491	14897
1612	1502	14901
1444	1587	14906
1382	1696	14911
1397	1526	14915
1424	1530	14920
1425	1550	14924
1374	1478	14929
1300	1404	14935
1287	1423	14939
1341	1439	14944
1449	1391	14949
1493	1430	14953
1494	1513	14958
1485	1509	14963
1473	1528	14967
1440	1541	14972
1325	1522	14977
1391	1455	14982
1432	1461	14987
1449	1533	14991
1472	1599	14996
1454	1534	15001
1475	1452	15005
1481	1399	15010
1491	1410	15014
1541	1434	15020
1627	1534	15025
1627	1696	15029
1551	1659	15034
1485	1538	15039
1461	1525	15043
1460	1562	15048
1445	1555	15052
1407	1574	15057
1347	1634	15063
1345	1568	15067
1393	1521	15072
1476	1486	15077
1538	1586	15081
1589	1741	15086
1602	1701	15091
1600	1675	15095
1502	1611	15100
1468	1568	15105
1493	1538	15110
1545	1640	15115
1544	1619	15119
1496	1593	15124
1482	1515	15129
1490	1504	15133
1431	1521	15138
1420	1546	15142
1493	1641	15148
1517	1655	15153
1504	1607	15157
1496	1607	15162
1460	1581	15167
1418	1641	15171
1424	1716	15176
1512	1642	15181
1551	1647	15185
1469	1618	15191
1381	1538	15195
1402	1528	15200
1484	1608	15205
1513	1660	15209
1496	1718	15214
1486	1672	15219
1463	1750	15223
1479	1638	15228
1516	1488	15233
1567	1451	15238
1551	1478	15243
1532	1653	15247
1476	1698	15252
1540	1694	15257
1594	1587	15261
1550	1684	15266
1422	1736	15271
1387	1630	15276
1435	1514	15281
1457	1505	15285
1489	1549	15290
1553	1577	15295
1600	1547	15299
1582	1563	15304
1529	1584	15309
1560	1594	15313
1687	1625	15319
1724	1696	15323
1672	1800	15328
1601	1743	15333
1513	1730	15337
1446	1633	15342
1387	1594	15347
1388	1609	15351
1451	1639	15356
1439	1711	15361
1414	1739	15366
1486	1698	15371
1640	1683	15375
1597	1690	15380
1470	1734	15385
1355	1664	15389
1309	1620	15394
1304	1637	15398
1334	1673	15404
1361	1638	15409
1388	1618	15413
1413	1622	15418
1473	1654	15423
1564	1676	15427
1544	1699	15432
1552	1680	15437
1469	1631	15441
1397	1725	15447
1357	1666	15451
1349	1592	15456
1342	1548	15461
1348	1525	15465
1374	1525	15470
1428	1538	15475
1442	1562	15479
1453	1582	15484
1442	1601	15489
1464	1617	15494
1555	1707	15499
1531	1705	15503
1422	1621	15508
1370	1526	15513
1348	1497	15517
1338	1551	15522
1314	1536	15526
1339	1541	15532
1397	1495	15537
1443	1497	15541
1479	1563	15546
1536	1570	15551
1532	1572	15555
1475	1588	15560
1453	1515	15565
1431	1483	15569
1431	1435	15575
1439	1492	15579
1463	1522	15584
1490	1370	15589
1490	1317	15593
1449	1310	15598
1475	1365	15603
1582	1423	15607
1625	1443	15612
1582	1440	15617
1524	1369	15622
1472	1462	15627
1438	1453	15631
1420	1334	15636
1391	1296	15641
1410	1296	15645
1414	1318	15650
1457	1383	15655
1546	1494	15660
1546	1429	15665
1530	1461	15669
1513	1410	15674
1509	1361	15679
1485	1299	15683
1458	1285	15688
1444	1351	15693
1443	1494	15697
1442	1399	15703
1430	1307	15707
1433	1264	15712
1467	1345	15717
1472	1411	15721
1461	1334	15726
1470	1214	15731
1464	1165	15735
1484	1263	15740
1516	1357	15745
1542	1265	15750
1544	1188	15755
1559	1187	15759
1502	1309	15764
1450	1290	15769
1433	1235	15773
1444	1197	15778
1473	1199	15783
1421	1228	15788
1387	1276	15793
1415	1321	15797
1449	1425	15802
1456	1371	15807
1489	1314	15811
1515	1454	15816
1537	1478	15821
1575	1311	15825
1558	1302	15831
1537	1318	15835
1528	1268	15840
1531	1286	15845
1529	1252	15849
1530	1316	15854
1544	1453	15859
1470	1363	15863
1472	1300	15868
1534	1245	15873
1565	1224	15878
1547	1199	15883
1517	1251	15887
1416	1424	15892
1329	1457	15897
1366	1295	15901
1429	1223	15906
1439	1204	15911
1412	1239	15916
1399	1435	15921
1384	1497	15925
1391	1306	15930
1413	1249	15935
1454	1256	15939
1465	1333	15944
1455	1466	15949
1408	1469	15953
1395	1413	15959
1401	1333	15963
1441	1325	15968
1506	1407	15973
1476	1510	15977
1476	1490	15982
1497	1532	15987
1470	1413	15991
1439	1380	15996
1403	1395	16001
1349	1431	16006
1382	1482	16011
1394	1543	16015
1390	1557	16020
1335	1530	16025
1322	1451	16029
1330	1436	16034
1317	1547	16038
1359	1713	16044
1412	1658	16049
1420	1440	16053
1422	1366	16058
1460	1366	16063
1480	1545	16067
1424	1622	16072
1394	1497	16077
1403	1389	16081
1447	1352	16087
1530	1440	16091
1498	1678	16096
1456	1598	16101
1459	1474	16105
1513	1427	16110
1532	1454	16115
1556	1447	16119
1483	1493	16124
1469	1467	16129
1459	1465	16134
1409	1492	16139
1381	1444	16143
1418	1399	16148
1451	1443	16153
1518	1524	16157
1602	1543	16162
1582	1468	16166
1489	1448	16172
1376	1483	16177
1404	1531	16181
1482	1635	16186
1516	1657	16191
1557	1679	16195
1569	1625	16200
1513	1584	16205
1438	1618	16209
1467	1532	16215
1515	1512	16219
1538	1562	16224
1535	1452	16229
1509	1447	16233
1435	1501	16238
1433	1577	16243
1456	1643	16247
1442	1661	16252
1414	1664	16257
1416	1653	16262
1408	1651	16267
1349	1557	16271
1356	1525	16276
1412	1554	16281
1441	1628	16285
1536	1668	16290
1586	1699	16294
1634	1675	16300
1678	1602	16305
1639	1634	16309
1538	1724	16314
1473	1789	16319
1437	1660	16323
1431	1568	16328
1482	1549	16333
1567	1602	16337
1596	1694	16343
1560	1697	16347
1520	1622	16352
1537	1598	16357
1588	1616	16361
1649	1649	16366
1666	1711	16371
1629	1760	16375
1621	1663	16380
1619	1647	16385
1573	1691	16390
1484	1659	16395
1468	1648	16399
1556	1570	16404
1549	1498	16409
1504	1507	16413
1493	1685	16418
1482	1669	16422
1469	1606	16428
1429	1470	16433
1394	1443	16437
1373	1626	16442
1444	1660	16447
1463	1524	16451
1466	1501	16456
1502	1579	16461
1511	1555	16465
1499	1565	16471
1439	1617	16475
1483	1663	16480
1472	1531	16485
1399	1430	16489
1345	1508	16494
1312	1488	16499
1322	1451	16503
1354	1497	16508
1390	1533	16513
1397	1572	16518
1427	1702	16523
1496	1713	16527
1501	1641	16532
1523	1559	16537
1565	1565	16541
1436	1618	16546
1361	1724	16550
1391	1768	16556
1397	1680	16561
1384	1591	16565
1364	1646	16570
1372	1702	16575
1391	1685	16579
1402	1589	16584
1412	1601	16589
1418	1590	16593
1410	1603	16599
1453	1633	16603
1545	1672	16608
1542	1717	16613
1516	1730	16617
1475	1759	16622
1426	1785	16627
1428	1718	16631
1435	1673	16636
1445	1654	16641
1454	1657	16646
1469	1670	16651
1477	1685	16655
1485	1701	16660
1509	1713	16665
1562	1728	16669
1584	1768	16674
1566	1802	16678
1555	1728	16684
1551	1727	16689
1537	1663	16693
1512	1632	16698
1482	1619	16703
1475	1619	16707
1494	1632	16712
1545	1660	16717
1616	1627	16721
1637	1610	16727
1592	1617	16731
1538	1580	16736
1519	1568	16741
1512	1592	16745
1511	1554	16750
1511	1533	16755
1510	1510	16759
1504	1503	16764
1531	1576	16769
1518	1624	16774
1522	1534	16779
1562	1440	16783
1575	1403	16788
1581	1410	16793
1579	1535	16797
1564	1511	16802
1528	1430	16806
1491	1375	16812
1491	1369	16817
1479	1398	16821
1481	1529	16826
1503	1441	16831
1561	1383	16835
1563	1364	16840
1559	1425	16845
1603	1553	16849
1595	1426	16855
1574	1348	16859
1540	1352	16864
1522	1417	16869
1513	1382	16873
1553	1350	16878
1561	1305	16883
1598	1258	16887
1591	1254	16892
1614	1402	16897
1636	1459	16902
1633	1286	16907
1615	1227	16911
1573	1224	16916
1531	1268	16921
1511	1389	16925
1502	1211	16930
1522	1151	16934
1523	1155	16940
1535	1280	16945
1557	1292	16949
1513	1199	16954
1465	1167	16959
1432	1184	16963
1390	1375	16968
1376	1495	16973
1376	1342	16977
1408	1214	16983
1410	1165	16987
1389	1167	16992
1390	1273	16997
1394	1347	17001
1397	1238	17006
1396	1190	17011
1399	1234	17015
1377	1377	17020
1370	1299	17025
1356	1343	17030
1388	1220	17035
1479	1188	17039
1492	1241	17044
1462	1365	17049
1379	1231	17053
1362	1158	17058
1344	1159	17062
1364	1248	17068
1390	1289	17073
1369	1200	17077
1374	1165	17082
1401	1191	17087
1432	1285	17091
1427	1259	17096
1355	1214	17101
1326	1197	17105
1333	1173	17111
1360	1243	17115
1372	1489	17120
1383	1401	17125
1381	1233	17129
1372	1191	17134
1400	1189	17139
1475	1283	17143
1474	1523	17148
1486	1413	17153
1492	1321	17158
1466	1320	17163
1453	1304	17167
1427	1275	17172
1406	1315	17177
1408	1352	17181
1423	1388	17186
1457	1460	17190
1516	1451	17196
1486	1527	17201
1467	1621	17205
1417	1478	17210
1418	1398	17215
1438	1373	17219
1454	1329	17224
1468	1333	17229
1481	1465	17233
1481	1546	17239
1458	1487	17243
1475	1411	17248
1524	1413	17253
1591	1468	17257
1643	1609	17262
1659	1709	17267
1521	1580	17271
1490	1506	17276
1490	1527	17281
1516	1412	17286
1492	1328	17291
1421	1286	17295
1436	1299	17300
1531	1443	17305
1533	1653	17309
1370	1630	17314
1324	1484	17318
1364	1334	17324
1328	1335	17329
1351	1411	17333
1425	1498	17338
1486	1587	17343
1477	1638	17347
1468	1588	17352
1487	1519	17357
1433	1461	17361
1346	1534	17367
1412	1503	17371
1560	1436	17376
1506	1560	17381
1441	1502	17385
1475	1414	17390
1437	1405	17395
1444	1313	17399
1575	1291	17404
1620	1360	17409
1647	1524	17414
1761	1642	17419
1820	1580	17423
1797	1449	17428
1741	1407	17433
1745	1414	17437
1740	1595	17442
1657	1820	17446
1550	1701	17452
1458	1630	17457
1483	1664	17461
1578	1573	17466
1588	1687	17471
1593	1720	17475
1460	1450	17480
1404	1441	17485
1371	1608	17489
1397	1564	17495
1418	1467	17499
1398	1484	17504
1374	1713	17509
1299	1661	17513
1354	1535	17518
1519	1543	17523
1695	1615	17527
1699	1566	17532
1562	1601	17537
1444	1627	17542
1414	1592	17547
1480	1534	17551
1511	1581	17556
1410	1667	17561
1362	1645	17565
1381	1577	17570
1513	1604	17575
1559	1747	17580
1501	1815	17585
1529	1703	17589
1469	1649	17594
1360	1695	17599
1369	1701	17603
1417	1666	17608
1451	1762	17613
1423	1646	17617
1441	1587	17623
1441	1665	17627
1402	1611	17632
1415	1624	17637
1414	1639	17641
1471	1564	17646
1533	1502	17651
1472	1484	17655
1380	1524	17660
1393	1620	17665
1447	1616	17670
1464	1567	17675
1500	1539	17679
1616	1666	17684
1709	1619	17689
1540	1546	17693
1498	1592	17698
1573	1563	17702
1544	1547	17708
1541	1579	17713
1514	1584	17717
1378	1617	17722
1371	1582	17727
1429	1503	17731
1478	1506	17736
1596	1505	17741
1690	1508	17745
1583	1621	17751
1499	1669	17755
1446	1675	17760
1434	1674	17765
1454	1640	17769
1419	1572	17774
1412	1568	17779
1428	1586	17783
1451	1679	17788
1530	1663	17793
1625	1643	17798
1627	1658	17803
1631	1713	17807
1569	1749	17812
1474	1729	17817
1423	1712	17821
1399	1756	17826
1401	1753	17830
1409	1713	17836
1432	1714	17841
1472	1713	17845
1502	1763	17850
1531	1722	17855
1555	1677	17859
1595	1665	17864
1631	1666	17869
1613	1693	17873
1580	1732	17879
1549	1733	17883
1515	1757	17888
1494	1686	17893
1537	1625	17897
1594	1558	17902
1597	1546	17907
1588	1552	17911
1587	1577	17916
1580	1610	17921
1572	1637	17926
1583	1621	17931
1597	1605	17935
1694	1622	17940
1719	1711	17945
1667	1670	17949
1641	1560	17954
1628	1531	17958
1634	1529	17964
1636	1510	17969
1637	1470	17973
1646	1469	17978
1653	1493	17983
1647	1533	17987
1679	1516	17992
1671	1459	17997
1641	1459	18001
1606	1526	18007
1560	1526	18011
1535	1484	18016
1519	1416	18021
1518	1354	18025
1509	1328	18030
1488	1415	18035
1435	1534	18039
1419	1415	18044
1432	1324	18049
1491	1287	18054
1564	1412	18059
1559	1541	18063
1489	1398	18068
1461	1259	18073
1469	1208	18077
1509	1264	18082
1532	1347	18087
1490	1347	18092
1454	1239	18097
1426	1187	18101
1373	1211	18106
1324	1306	18111
1316	1394	18115
1376	1396	18120
1461	1276	18125
1508	1221	18129
1473	1293	18135
1407	1292	18139
1391	1199	18144
1423	1180	18149
1434	1198	18153
1450	1369	18158
1487	1446	18163
1453	1289	18167
1435	1200	18172
1427	1198	18177
1383	1339	18182
1349	1340	18187
1363	1262	18191
1382	1236	18196
1406	1272	18201
1411	1374	18205
1463	1419	18210
1495	1337	18214
1481	1262	18220
1455	1248	18225
1431	1352	18229
1415	1338	18234
1377	1263	18239
1379	1277	18243
1345	1380	18248
1443	1391	18253
1524	1326	18257
1558	1252	18263
1548	1244	18267
1477	1329	18272
1395	1297	18277
1378	1240	18281
1424	1233	18286
1461	1249	18291
1487	1338	18295
1511	1454	18300
1533	1387	18305
1521	1313	18310
1484	1282	18315
1459	1302	18319
1483	1386	18324
1505	1414	18329
1534	1381	18333
1534	1302	18338
1509	1323	18342
1521	1446	18348
1541	1451	18353
1562	1344	18357
1549	1281	18362
1503	1265	18367
1471	1294	18371
1449	1327	18376
1446	1317	18381
1470	1333	18385
1492	1399	18391
1466	1525	18395
1451	1524	18400
1485	1453	18405
1539	1447	18409
1600	1377	18414
1588	1441	18419
1555	1454	18423
1543	1302	18428
1529	1253	18433
1548	1263	18438
1576	1291	18443
1548	1356	18447
1485	1329	18452
1468	1263	18457
1494	1246	18461
1609	1298	18466
1637	1491	18470
1578	1489	18476
1517	1314	18481
1494	1249	18485
1525	1226	18490
1597	1277	18495
1650	1435	18499
1648	1454	18504
1586	1306	18509
1607	1277	18513
1632	1306	18519
1598	1378	18523
1555	1412	18528
1555	1340	18533
1541	1355	18537
1575	1376	18542
1680	1315	18547
1709	1321	18551
1615	1338	18556
1520	1443	18561
1380	1639	18566
1334	1642	18571
1399	1489	18575
1503	1427	18580
1604	1455	18585
1712	1510	18589
1677	1471	18594
1516	1415	18598
1462	1460	18604
1371	1601	18609
1382	1497	18613
1483	1356	18618
1555	1417	18623
1473	1369	18627
1419	1243	18632
1495	1174	18637
1599	1177	18641
1635	1319	18647
1650	1494	18651
1648	1440	18656
1639	1336	18661
1590	1343	18665
1536	1374	18670
1493	1358	18675
1513	1341	18679
1509	1299	18684
1486	1299	18689
1556	1330	18694
1634	1465	18699
1663	1737	18703
1612	1720	18708
1484	1535	18713
1414	1483	18717
1495	1740	18722
1537	1676	18726
1579	1543	18732
1658	1525	18737
1723	1390	18741
1658	1303	18746
1554	1418	18751
1644	1371	18755
1791	1303	18760
1799	1417	18765
1737	1442	18769
1732	1458	18775
1641	1508	18779
1614	1482	18784
1624	1426	18789
1496	1488	18793
1373	1538	18798
1300	1506	18803
1300	1518	18807
1309	1645	18812
1351	1712	18817
1425	1573	18822
1486	1410	18827
1525	1366	18831
1580	1385	18836
1701	1466	18841
1741	1621	18845
1703	1635	18850
1649	1519	18854
1607	1490	18860
1597	1513	18865
1510	1613	18869
1524	1670	18874
1658	1666	18879
1649	1632	18883
1589	1566	18888
1533	1570	18893
1499	1615	18897
1488	1583	18903
1549	1538	18907
1491	1579	18912
1465	1598	18917
1495	1631	18921
1576	1567	18926
1647	1577	18931
1641	1531	18935
1577	1397	18940
1494	1356	18945
1499	1396	18950
1601	1501	18955
1673	1560	18959
1625	1629	18964
1555	1638	18969
1541	1628	18973
1662	1507	18978
1609	1462	18982
1555	1580	18988
1517	1691	18993
1499	1619	18997
1545	1544	19002
1584	1486	19007
1687	1522	19011
1731	1535	19016
1678	1615	19021
1714	1523	19025
1671	1453	19031
1627	1448	19035
1620	1590	19040
1624	1610	19045
1565	1581	19049
1588	1569	19054
1608	1576	19059
1550	1568	19063
1542	1437	19068
1526	1438	19073
1514	1417	19078
1649	1479	19083
1742	1624	19087
1663	1591	19092
1552	1555	19097
1504	1509	19101
1476	1513	19106
1466	1532	19111
1424	1482	19116
1459	1451	19121
1471	1464	19125
1460	1507	19130
1424	1529	19135
1402	1584	19139
1488	1543	19144
1679	1491	19149
1673	1512	19153
1553	1523	19159
1427	1390	19163
1334	1337	19168
1347	1325	19173
1409	1332	19177
1437	1448	19182
1450	1389	19187
1456	1413	19191
1469	1390	19196
1478	1406	19202
1498	1516	19206
1514	1408	19211
1516	1374	19215
1487	1396	19220
1432	1434	19225
1404	1544	19229
1377	1515	19234
1364	1496	19239
1311	1497	19244
1294	1431	19249
1360	1472	19253
1431	1672	19258
1473	1479	19263
1517	1404	19267
1525	1426	19272
1535	1418	19277
1503	1438	19281
1447	1478	19287
1416	1547	19291
1412	1605	19296
1426	1573	19301
1454	1563	19305
1424	1550	19310
1346	1483	19315
1364	1517	19319
1441	1467	19324
1512	1481	19329
1527	1468	19334
1522	1449	19339
1498	1474	19343
1443	1549	19348
1426	1571	19353
1453	1693	19357
1485	1557	19362
1493	1496	19367
1479	1510	19372
1484	1470	19377
1487	1436	19381
1476	1446	19386
1462	1478	19391
1443	1521	19395
1443	1571	19400
1448	1653	19405
1454	1661	19409
1438	1650	19415
1413	1654	19419
1411	1648	19424
1434	1639	19429
1444	1548	19433
1445	1530	19438
1468	1511	19443
1486	1495	19447
1484	1598	19452
1473	1532	19457
1454	1479	19462
1429	1490	19467
1425	1528	19471
1435	1503	19476
1457	1510	19481
1473	1532	19485
1477	1645	19490
1469	1626	19495
1448	1582	19500
1459	1618	19505
1494	1574	19509
1494	1531	19514
1478	1477	19519
1464	1452	19523
1457	1459	19528
1462	1473	19533
1466	1494	19537
1466	1504	19543
1479	1549	19547
1517	1597	19552
1561	1586	19557
1592	1540	19561
1595	1513	19566
1587	1510	19571
1583	1528	19575
1589	1572	19580
1577	1607	19586
1555	1612	19590
1532	1649	19595
1508	1613	19599
1489	1625	19604
1482	1605	19609
1477	1609	19613
1470	1631	19618
1459	1641	19623
1447	1649	19628
1444	1644	19633
1446	1629	19637
1446	1637	19642
1443	1661	19647
1439	1659	19651
1439	1667	19656
1443	1653	19661
1442	1634	19665
1441	1632	19671
1436	1659	19675
1424	1664	19680
1419	1697	19685
1428	1642	19689
1438	1669	19694
1444	1629	19699
1447	1592	19703
1445	1572	19708
1438	1544	19713
1432	1546	19718
1425	1571	19723
1420	1576	19727
1422	1574	19732
1432	1596	19737
1437	1576	19741
1441	1563	19746
1442	1558	19751
1442	1594	19756
1447	1641	19761
1452	1611	19765
1454	1567	19770
1452	1545	19775
1449	1516	19779
1445	1512	19784
1452	1508	19789
1460	1504	19793
1464	1507	19799
1466	1525	19803
1466	1537	19808
1463	1553	19813
1460	1559	19817
1461	1577	19822
1466	1588	19827
1471	1589	19831
1480	1586	19836
1491	1576	19842
1495	1540	19846
1499	1536	19851
1500	1515	19855
1497	1508	19860
1497	1517	19865
1498	1547	19869
1507	1551	19874
1523	1567	19879
1524	1603	19884
1511	1651	19889
1501	1636	19893
1497	1567	19898
1494	1492	19903
1493	1448	19907
1494	1439	19912
1500	1450	19917
1502	1465	19921
1500	1473	19927
1494	1501	19931
1492	1511	19936
1491	1527	19941
1490	1544	19945
1492	1595	19950
1489	1599	19955
1491	1595	19959
1506	1579	19964
1502	1570	19970
1491	1559	19974
1484	1554	19979
1483	1543	19983
1484	1531	19988
1487	1525	19993
1490	1519	19997
1491	1534	20002
1487	1540	20007
1486	1558	20012
1489	1564	20017
1496	1547	20021
1501	1554	20026
1502	1559	20031
1502	1502	20035
1503	1503	20040
1505	1508	20045
1503	1526	20049
1503	1533	20055
1505	1521	20059
1506	1526	20064
1506	1487	20069
1509	1468	20073
1513	1467	20078
1533	1475	20083
1560	1488	20087
1583	1536	20092
1595	1548	20098
1590	1544	20102
1584	1588	20107
1576	1488	20111
1558	1512	20116
1547	1500	20121
1544	1427	20125
1543	1384	20130
1541	1407	20135
1535	1412	20140
1517	1409	20145
1493	1437	20149
1469	1438	20154
1456	1465	20159
1451	1511	20163
1448	1518	20168
1444	1516	20173
1441	1561	20177
1441	1509	20183
1449	1467	20187
1468	1452	20192
1472	1477	20197
1463	1480	20201
1454	1485	20206
1451	1506	20211
1438	1535	20215
1424	1487	20220
1424	1459	20226
1420	1470	20230
1422	1532	20235
1422	1469	20239
1419	1445	20244
1414	1461	20249
1415	1505	20253
1423	1529	20258
1428	1476	20263
1430	1471	20268
1439	1462	20273
1448	1458	20277
1441	1459	20282
1432	1466	20287
1433	1530	20291
1440	1556	20296
1441	1521	20301
1436	1475	20305
1434	1444	20311
1435	1432	20315
1440	1439	20320
1457	1431	20325
1469	1440	20329
1477	1467	20334
1491	1493	20339
1497	1515	20343
1489	1561	20348
1475	1542	20354
1460	1526	20358
1455	1528	20363
1457	1555	20367
1468	1503	20372
1475	1492	20377
1478	1496	20381
1481	1508	20386
1481	1545	20391
1480	1583	20396
1483	1555	20401
1491	1531	20405
1509	1552	20410
1524	1529	20415
1521	1507	20419
1511	1504	20424
1499	1516	20429
1490	1533	20433
1490	1519	20439
1496	1511	20443
1509	1537	20448
1511	1512	20453
1504	1529	20457
1492	1520	20462
1484	1504	20467
1481	1515	20471
1487	1536	20476
1499	1544	20482
1506	1535	20486
1510	1514	20491
1512	1513	20495
1518	1564	20500
1534	1537	20505
1548	1537	20509
1542	1532	20514
1529	1549	20519
1516	1516	20524
1508	1514	20529
1505	1535	20533
1510	1527	20538
1519	1535	20543
1536	1504	20547
1540	1442	20552
1528	1427	20557
1521	1432	20561
1519	1456	20567
1521	1488	20571
1525	1501	20576
1528	1484	20581
1529	1487	20585
1526	1496	20590
1529	1505	20595
1543	1543	20599
1554	1553	20604
1574	1590	20610
1595	1585	20614
1606	1577	20619
1602	1498	20623
1590	1454	20628
1584	1465	20633
1574	1454	20637
1566	1454	20642
1567	1461	20647
1566	1482	20652
1562	1500	20657
1548	1503	20661
1544	1515	20666
1550	1534	20671
1541	1540	20675
1518	1525	20680
1504	1543	20685
1496	1550	20689
1486	1561	20695
1476	1503	20699
1471	1464	20704
1480	1452	20709
1486	1449	20713
1484	1457	20718
1476	1477	20723
1474	1502	20727
1478	1523	20732
1483	1567	20737
1485	1513	20742
1481	1450	20747
1463	1429	20751
1451	1430	20756
1453	1447	20761
1460	1477	20765
1462	1509	20770
1462	1528	20775
1457	1495	20780
1453	1474	20785
1451	1459	20789
1448	1464	20794
1447	1478	20799
1447	1491	20803
1452	1552	20808
1455	1526	20813
1458	1491	20817
1458	1482	20823
1452	1498	20827
1450	1508	20832
1452	1493	20837
1461	1510	20841
1478	1560	20846
1477	1516	20851
1464	1482	20855
1457	1449	20860
1455	1440	20865
1453	1442	20870
1456	1480	20875
1461	1513	20879
1465	1496	20884
1469	1481	20889
1473	1489	20893
1473	1442	20898
1467	1424	20903
1464	1432	20908
1465	1439	20913
1472	1455	20917
1494	1467	20922
1504	1467	20927
1497	1483	20931
1488	1493	20936
1482	1520	20941
1479	1520	20945
1487	1524	20951
1502	1528	20955
1513	1544	20960
1502	1505	20965
1491	1459	20969
1482	1437	20974
1479	1412	20979
1482	1430	20983
1503	1447	20988
1531	1460	20993
1525	1504	20998
1510	1488	21003
1496	1472	21007
1493	1466	21012
1493	1469	21017
1493	1489	21021
1501	1524	21026
1518	1563	21031
1531	1546	21036
1532	1510	21041
