1421	1482	4
1425	1486	9
1435	1490	13
1444	1495	18
1448	1493	22
1447	1505	27
1443	1512	31
1440	1501	36
1443	1516	40
1448	1484	45
1453	1485	50
1457	1458	54
1453	1472	59
1450	1451	63
1453	1472	68
1466	1451	72
1482	1443	77
1486	1414	81
1485	1434	87
1480	1437	91
1476	1418	96
1476	1415	100
1475	1405	105
1473	1395	109
1471	1400	114
1469	1450	118
1469	1472	123
1467	1447	128
1460	1474	133
1462	1460	137
1469	1431	142
1482	1399	146
1487	1403	151
1480	1431	156
1469	1446	160
1462	1416	165
1459	1390	169
1460	1407	175
1460	1412	179
1461	1415	184
1462	1456	188
1464	1440	193
1467	1431	197
1470	1408	202
1472	1411	206
1473	1469	211
1467	1478	216
1450	1494	221
1422	1462	225
1406	1435	230
1410	1406	235
1413	1406	239
1396	1411	244
1394	1400	248
1423	1460	253
1462	1432	258
1505	1454	263
1538	1467	267
1569	1474	272
1594	1495	276
1610	1449	281
1628	1427	285
1642	1422	290
1648	1476	294
1638	1472	300
1621	1455	304
1603	1461	309
1579	1448	313
1551	1447	318
1508	1543	323
1475	1529	327
1463	1500	332
1479	1455	336
1472	1450	342
1449	1501	346
1441	1487	351
1472	1469	355
1509	1454	360
1524	1427	364
1519	1427	369
1514	1427	373
1519	1441	378
1517	1465	382
1510	1542	388
1497	1618	392
1482	1614	397
1483	1531	402
1471	1497	406
1436	1466	411
1394	1466	415
1379	1458	420
1404	1445	424
1437	1459	430
1459	1435	434
1479	1426	439
1480	1442	443
1487	1456	448
1490	1505	452
1490	1530	457
1491	1495	461
1487	1473	466
1478	1565	471
1469	1543	476
1455	1533	481
1441	1510	485
1445	1469	490
1452	1449	494
1450	1474	499
1412	1418	503
1381	1472	508
1377	1475	513
1417	1432	518
1459	1432	522
1485	1411	527
1501	1428	531
1507	1449	536
1510	1433	540
1512	1480	545
1512	1505	549
1512	1538	555
1511	1679	560
1500	1585	564
1501	1511	569
1502	1576	573
1503	1523	578
1503	1571	582
1464	1541	587
1401	1500	591
1380	1454	596
1412	1391	601
1461	1377	606
1479	1423	610
1487	1422	615
1488	1409	619
1487	1450	624
1484	1493	628
1475	1499	633
1477	1543	638
1490	1530	643
1508	1472	648
1521	1403	652
1533	1389	657
1539	1388	661
1533	1405	666
1527	1424	670
1519	1436	675
1513	1462	679
1504	1477	685
1504	1560	689
1509	1564	694
1503	1531	698
1502	1462	703
1507	1502	707
1508	1540	712
1503	1517	717
1505	1464	721
1512	1414	727
1526	1439	731
1554	1449	736
1574	1435	740
1596	1540	745
1614	1543	749
1636	1482	754
1668	1423	758
1673	1423	763
1655	1485	768
1630	1517	773
1619	1476	777
1625	1435	782
1625	1451	786
1612	1444	791
1593	1492	796
1576	1509	800
1565	1507	805
1558	1498	809
1539	1470	815
1498	1445	819
1470	1530	824
1470	1478	828
1490	1458	833
1503	1445	837
1502	1435	842
1491	1446	846
1477	1466	851
1465	1468	856
1469	1518	861
1474	1581	865
1464	1533	870
1441	1520	875
1435	1496	879
1439	1597	884
1433	1599	888
1422	1474	893
1427	1430	898
1445	1405	903
1456	1407	907
1451	1432	912
1448	1474	916
1453	1463	921
1456	1460	925
1446	1464	930
1433	1492	934
1391	1534	940
1347	1577	944
1323	1529	949
1355	1523	954
1397	1472	958
1427	1464	963
1441	1493	967
1449	1480	972
1455	1473	976
1458	1477	982
1458	1476	986
1457	1507	991
1435	1590	995
1410	1570	1000
1412	1556	1004
1447	1511	1009
1471	1568	1014
1479	1581	1018
1471	1508	1024
1477	1440	1028
1497	1415	1033
1504	1413	1037
1502	1421	1042
1499	1441	1047
1494	1447	1051
1491	1460	1056
1486	1476	1060
1482	1488	1065
1475	1532	1070
1474	1584	1075
1473	1557	1080
1467	1533	1084
1445	1590	1089
1416	1530	1093
1409	1464	1098
1437	1462	1103
1446	1461	1107
1444	1482	1113
1452	1454	1117
1473	1432	1122
1495	1428	1126
1511	1432	1131
1520	1448	1136
1525	1462	1140
1527	1495	1145
1527	1503	1149
1525	1485	1155
1528	1511	1159
1530	1471	1164
1528	1517	1169
1495	1631	1173
1461	1477	1178
1458	1419	1182
1474	1397	1187
1479	1417	1192
1443	1436	1197
1412	1412	1202
1456	1409	1206
1538	1416	1211
1604	1425	1215
1657	1438	1220
1691	1459	1225
1712	1456	1229
1722	1466	1234
1722	1539	1239
1704	1603	1244
1686	1622	1248
1669	1571	1253
1648	1491	1258
1612	1468	1262
1574	1524	1267
1537	1505	1271
1535	1434	1276
1573	1409	1282
1588	1390	1286
1578	1397	1291
1555	1422	1295
1527	1424	1300
1505	1433	1304
1495	1443	1309
1488	1472	1314
1434	1636	1318
1342	1530	1324
1330	1455	1328
1373	1419	1333
1431	1418	1337
1490	1506	1342
1488	1536	1347
1425	1629	1351
1372	1576	1356
1379	1514	1360
1428	1449	1366
1484	1474	1371
1505	1481	1375
1504	1431	1380
1499	1413	1384
1485	1411	1389
1462	1443	1393
1409	1529	1398
1341	1460	1403
1333	1441	1408
1365	1440	1413
1382	1447	1417
1369	1546	1422
1356	1554	1427
1375	1540	1431
1416	1556	1436
1456	1481	1440
1498	1473	1445
1540	1596	1449
1529	1592	1455
1510	1500	1460
1462	1542	1464
1386	1590	1469
1309	1573	1473
1296	1514	1478
1333	1559	1482
1377	1483	1487
1414	1428	1492
1445	1409	1497
1481	1412	1502
1513	1410	1506
1530	1416	1511
1540	1432	1516
1541	1456	1520
1526	1488	1525
1517	1504	1529
1533	1553	1534
1581	1792	1539
1617	1661	1544
1611	1549	1549
1532	1612	1553
1432	1602	1558
1398	1479	1562
1414	1472	1567
1441	1587	1571
1471	1554	1576
1481	1472	1582
1499	1456	1586
1535	1464	1591
1556	1510	1595
1532	1618	1600
1505	1655	1605
1503	1582	1609
1574	1555	1614
1597	1511	1618
1557	1589	1624
1477	1542	1628
1457	1505	1633
1482	1494	1638
1507	1509	1642
1514	1539	1647
1503	1611	1651
1472	1545	1656
1469	1526	1660
1459	1522	1666
1457	1628	1671
1462	1770	1675
1456	1711	1680
1547	1531	1684
1650	1486	1689
1728	1471	1694
1743	1488	1698
1738	1495	1703
1745	1495	1708
1747	1490	1713
1721	1502	1717
1676	1559	1722
1632	1574	1727
1605	1520	1731
1588	1607	1736
1568	1744	1740
1541	1570	1745
1553	1483	1750
1569	1455	1755
1561	1487	1760
1528	1609	1764
1537	1488	1769
1551	1480	1773
1536	1546	1778
1499	1462	1783
1476	1445	1787
1457	1447	1793
1435	1479	1797
1424	1561	1802
1426	1506	1806
1433	1479	1811
1432	1474	1816
1427	1570	1820
1440	1675	1825
1426	1555	1829
1425	1502	1835
1468	1487	1839
1542	1486	1844
1565	1484	1849
1560	1483	1853
1516	1484	1858
1449	1558	1862
1374	1516	1867
1359	1500	1872
1358	1501	1876
1367	1549	1882
1374	1602	1886
1372	1598	1891
1368	1517	1895
1364	1482	1900
1389	1510	1905
1416	1506	1909
1434	1504	1914
1421	1545	1918
1402	1503	1924
1391	1555	1928
1359	1561	1933
1351	1517	1938
1363	1502	1942
1393	1481	1947
1424	1486	1951
1447	1483	1956
1461	1512	1961
1457	1572	1966
1450	1503	1971
1449	1473	1975
1452	1459	1980
1459	1463	1984
1478	1482	1989
1488	1521	1994
1490	1505	1998
1496	1503	2003
1483	1520	2008
1476	1658	2013
1467	1655	2018
1463	1535	2022
1486	1474	2027
1504	1453	2031
1497	1464	2036
1461	1495	2040
1420	1505	2045
1413	1466	2051
1428	1469	2055
1461	1563	2060
1500	1538	2064
1518	1470	2069
1517	1444	2073
1512	1453	2078
1474	1498	2083
1437	1531	2087
1438	1494	2093
1462	1473	2097
1483	1466	2102
1521	1497	2107
1539	1508	2111
1550	1517	2116
1543	1526	2120
1515	1495	2125
1507	1498	2129
1528	1602	2135
1522	1606	2140
1493	1527	2144
1463	1498	2149
1484	1490	2153
1551	1606	2158
1578	1689	2162
1615	1556	2167
1663	1486	2172
1704	1460	2177
1702	1450	2182
1674	1450	2186
1647	1466	2191
1642	1480	2196
1633	1492	2200
1622	1494	2205
1607	1501	2209
1595	1530	2214
1589	1667	2219
1558	1661	2224
1530	1546	2229
1547	1517	2233
1586	1590	2238
1581	1629	2242
1530	1594	2247
1479	1508	2251
1450	1470	2256
1453	1494	2262
1455	1523	2266
1437	1490	2271
1416	1466	2275
1415	1479	2280
1425	1536	2285
1421	1641	2289
1412	1566	2294
1407	1494	2298
1431	1467	2304
1471	1462	2308
1483	1505	2313
1491	1513	2318
1485	1520	2322
1489	1510	2327
1466	1518	2331
1469	1544	2336
1439	1597	2340
1448	1620	2345
1459	1599	2351
1441	1570	2355
1393	1531	2360
1360	1551	2364
1361	1594	2369
1388	1538	2374
1413	1503	2378
1427	1491	2383
1432	1495	2387
1433	1519	2393
1431	1524	2397
1429	1516	2402
1443	1531	2407
1455	1579	2411
1459	1558	2416
1469	1534	2420
1488	1527	2425
1518	1539	2429
1529	1607	2435
1494	1644	2440
1463	1614	2444
1445	1637	2449
1447	1593	2453
1455	1533	2458
1470	1539	2463
1488	1513	2467
1497	1493	2472
1497	1488	2477
1494	1481	2482
1491	1491	2486
1497	1505	2491
1496	1511	2496
1484	1515	2500
1486	1557	2505
1541	1549	2509
1574	1578	2514
1574	1681	2519
1526	1655	2524
1483	1544	2529
1475	1508	2533
1482	1534	2538
1476	1584	2542
1482	1524	2547
1476	1467	2552
1470	1446	2556
1480	1456	2562
1516	1466	2566
1532	1470	2571
1552	1492	2575
1559	1527	2580
1560	1522	2585
1564	1501	2589
1568	1495	2594
1576	1505	2598
1576	1560	2604
1574	1573	2609
1562	1576	2613
1538	1548	2618
1532	1495	2622
1524	1515	2627
1492	1625	2631
1477	1598	2636
1500	1494	2641
1562	1451	2646
1639	1441	2651
1676	1442	2655
1693	1442	2660
1697	1472	2664
1714	1474	2669
1726	1467	2674
1728	1461	2678
1719	1467	2683
1708	1480	2688
1710	1514	2693
1689	1546	2698
1658	1536	2702
1621	1513	2707
1581	1530	2711
1533	1590	2716
1514	1587	2720
1517	1603	2725
1530	1534	2731
1534	1482	2735
1529	1511	2740
1512	1456	2744
1496	1445	2749
1487	1463	2753
1480	1461	2758
1470	1513	2763
1453	1467	2767
1435	1452	2772
1443	1451	2777
1461	1448	2782
1486	1458	2787
1493	1475	2791
1477	1497	2796
1452	1518	2800
1406	1596	2805
1379	1602	2809
1392	1556	2814
1432	1576	2820
1450	1575	2824
1456	1475	2829
1443	1442	2833
1423	1421	2838
1419	1414	2843
1444	1440	2847
1460	1502	2852
1470	1525	2856
1459	1479	2862
1456	1453	2866
1448	1451	2871
1445	1500	2876
1408	1531	2880
1362	1575	2885
1343	1517	2889
1373	1484	2894
1426	1478	2898
1468	1476	2904
1490	1544	2909
1478	1568	2913
1448	1595	2918
1464	1540	2922
1488	1523	2927
1527	1519	2932
1535	1582	2936
1554	1590	2941
1553	1589	2946
1548	1483	2951
1568	1453	2955
1579	1554	2960
1534	1480	2965
1513	1406	2969
1545	1569	2974
1536	1536	2978
1539	1377	2983
1575	1367	2988
1606	1409	2993
1586	1337	2998
1551	1439	3002
1518	1473	3007
1551	1384	3011
1531	1454	3016
1447	1471	3021
1457	1397	3025
1513	1609	3031
1535	1446	3035
1519	1368	3040
1467	1495	3044
1423	1459	3049
1426	1422	3054
1482	1350	3058
1505	1321	3063
1461	1364	3067
1409	1665	3073
1453	1509	3078
1533	1392	3082
1585	1344	3087
1608	1411	3091
1584	1709	3096
1564	1472	3100
1590	1391	3105
1615	1463	3110
1569	1431	3115
1543	1323	3120
1596	1434	3124
1642	1550	3129
1621	1370	3133
1604	1332	3138
1595	1373	3143
1594	1649	3147
1649	1540	3152
1785	1545	3156
1789	1505	3162
1727	1419	3167
1637	1363	3171
1614	1392	3176
1615	1627	3180
1662	1571	3185
1660	1383	3189
1656	1329	3194
1628	1323	3200
1594	1336	3204
1565	1355	3209
1563	1390	3213
1531	1510	3218
1422	1510	3222
1350	1458	3227
1327	1462	3232
1364	1688	3236
1395	1678	3241
1434	1606	3246
1442	1501	3251
1389	1478	3256
1342	1633	3260
1359	1662	3265
1395	1509	3269
1439	1391	3274
1431	1502	3278
1387	1340	3283
1318	1318	3289
1291	1372	3293
1323	1297	3298
1305	1359	3302
1334	1445	3307
1423	1515	3311
1474	1600	3316
1453	1600	3321
1376	1659	3325
1312	1821	3331
1301	1589	3335
1312	1390	3340
1316	1292	3345
1303	1243	3349
1291	1285	3354
1301	1302	3358
1317	1229	3363
1328	1210	3367
1329	1231	3373
1222	1282	3378
1210	1264	3382
1268	1251	3387
1365	1251	3391
1436	1266	3396
1481	1367	3400
1473	1333	3405
1424	1325	3410
1366	1300	3415
1334	1417	3420
1347	1502	3424
1381	1550	3429
1400	1396	3434
1403	1290	3438
1386	1230	3443
1367	1279	3447
1304	1284	3452
1251	1244	3457
1270	1219	3462
1331	1190	3467
1401	1201	3471
1435	1292	3476
1455	1309	3480
1479	1305	3485
1476	1285	3489
1458	1302	3494
1465	1348	3500
1507	1419	3504
1526	1504	3509
1517	1491	3513
1490	1484	3518
1472	1335	3523
1452	1277	3527
1411	1266	3532
1371	1310	3536
1370	1394	3542
1404	1300	3546
1433	1261	3551
1450	1276	3556
1479	1299	3560
1560	1344	3565
1603	1339	3569
1561	1397	3574
1510	1428	3578
1514	1369	3584
1548	1386	3589
1543	1408	3593
1504	1467	3598
1492	1398	3602
1504	1349	3607
1504	1342	3612
1504	1362	3616
1514	1382	3621
1522	1378	3625
1548	1372	3631
1608	1376	3635
1669	1444	3640
1688	1559	3645
1663	1430	3649
1647	1419	3654
1611	1518	3658
1615	1524	3663
1651	1383	3667
1671	1336	3673
1612	1328	3678
1537	1339	3682
1483	1391	3687
1500	1376	3691
1550	1387	3696
1562	1403	3701
1560	1428	3705
1559	1457	3710
1566	1444	3715
1561	1453	3720
1555	1474	3724
1515	1649	3729
1461	1619	3734
1413	1495	3738
1378	1433	3743
1330	1459	3747
1334	1441	3752
1433	1455	3757
1484	1391	3762
1484	1382	3767
1465	1389	3771
1454	1407	3776
1439	1432	3780
1425	1452	3785
1425	1485	3790
1425	1482	3794
1438	1501	3800
1475	1602	3804
1509	1692	3809
1482	1533	3813
1405	1488	3818
1357	1501	3823
1353	1425	3827
1359	1395	3832
1370	1416	3836
1379	1425	3842
1380	1418	3846
1379	1424	3851
1387	1447	3856
1400	1462	3860
1405	1478	3865
1404	1584	3869
1439	1527	3874
1445	1521	3879
1436	1487	3884
1424	1522	3889
1383	1505	3893
1334	1498	3898
1346	1567	3902
1349	1506	3907
1358	1473	3912
1390	1438	3916
1428	1430	3921
1451	1435	3926
1463	1448	3931
1468	1499	3936
1468	1524	3940
1470	1468	3945
1477	1455	3949
1508	1503	3954
1522	1588	3958
1491	1712	3963
1428	1580	3969
1423	1478	3973
1449	1415	3978
1471	1403	3982
1426	1431	3987
1371	1454	3991
1366	1429	3996
1425	1424	4001
1464	1427	4005
1474	1444	4011
1492	1511	4015
1492	1486	4020
1489	1468	4025
1504	1471	4029
1541	1581	4034
1539	1579	4038
1505	1509	4043
1468	1511	4047
1469	1511	4052
1515	1464	4058
1540	1497	4062
1547	1459	4067
1530	1475	4071
1511	1415	4076
1493	1409	4080
1484	1417	4085
1482	1450	4090
1488	1490	4094
1491	1463	4100
1496	1459	4104
1485	1480	4109
1468	1620	4114
1516	1542	4118
1549	1469	4123
1613	1454	4127
1752	1520	4132
1855	1579	4136
1850	1477	4142
1777	1435	4147
1696	1507	4151
1624	1476	4156
1577	1431	4160
1556	1399	4165
1543	1397	4169
1531	1405	4174
1520	1450	4179
1512	1447	4184
1499	1454	4189
1481	1466	4193
1486	1509	4198
1501	1599	4203
1453	1605	4207
1401	1530	4212
1386	1512	4216
1455	1545	4221
1516	1536	4226
1534	1500	4231
1545	1524	4236
1547	1578	4240
1540	1506	4245
1511	1425	4249
1482	1404	4254
1455	1396	4258
1437	1436	4263
1425	1421	4269
1415	1411	4273
1411	1416	4278
1409	1468	4282
1401	1664	4287
1404	1535	4292
1419	1469	4296
1459	1444	4301
1459	1451	4305
1441	1528	4311
1414	1565	4315
1384	1483	4320
1382	1463	4325
1365	1476	4329
1375	1614	4334
1395	1544	4338
1412	1520	4343
1458	1523	4347
1486	1592	4353
1455	1591	4358
1416	1522	4362
1429	1462	4367
1433	1420	4371
1419	1417	4376
1388	1450	4381
1385	1447	4385
1407	1463	4390
1432	1505	4395
1444	1515	4400
1452	1508	4404
1483	1516	4409
1484	1642	4414
1476	1695	4418
1479	1565	4423
1495	1485	4427
1463	1507	4432
1448	1542	4438
1460	1539	4442
1491	1473	4447
1513	1456	4451
1477	1617	4456
1414	1475	4460
1417	1441	4465
1468	1426	4470
1502	1442	4474
1487	1588	4480
1433	1596	4484
1424	1540	4489
1439	1658	4493
1458	1629	4498
1490	1496	4503
1512	1415	4507
1567	1391	4512
1560	1405	4516
1509	1425	4521
1518	1447	4527
1521	1471	4531
1495	1497	4536
1473	1518	4540
1498	1551	4545
1520	1679	4549
1521	1622	4554
1508	1532	4559
1490	1507	4563
1479	1587	4569
1480	1677	4573
1480	1531	4578
1522	1541	4582
1596	1577	4587
1643	1490	4592
1673	1558	4596
1715	1467	4601
1766	1441	4605
1780	1448	4611
1741	1471	4616
1604	1519	4620
1489	1603	4625
1474	1581	4629
1513	1534	4634
1560	1538	4638
1576	1529	4643
1567	1475	4648
1549	1468	4653
1528	1470	4658
1503	1523	4662
1491	1547	4667
1493	1517	4672
1504	1512	4676
1535	1538	4681
1564	1697	4685
1600	1675	4690
1602	1577	4695
1552	1521	4700
1515	1524	4705
1430	1552	4709
1323	1656	4714
1275	1475	4718
1343	1432	4723
1413	1426	4727
1438	1433	4732
1437	1462	4738
1431	1557	4742
1420	1484	4747
1415	1481	4751
1418	1592	4756
1438	1510	4761
1514	1477	4765
1609	1494	4770
1619	1542	4774
1512	1482	4780
1392	1497	4784
1359	1584	4789
1364	1592	4794
1370	1500	4798
1387	1471	4803
1408	1487	4807
1409	1543	4812
1400	1511	4816
1388	1472	4822
1380	1493	4827
1378	1640	4831
1381	1572	4836
1394	1490	4840
1450	1452	4845
1528	1497	4850
1544	1507	4854
1509	1473	4859
1492	1450	4864
1494	1461	4869
1463	1582	4873
1367	1564	4878
1303	1496	4883
1319	1481	4887
1398	1520	4892
1450	1530	4896
1473	1522	4901
1479	1475	4905
1471	1493	4911
1460	1505	4916
1442	1463	4920
1455	1461	4925
1488	1473	4929
1578	1524	4934
1606	1634	4939
1594	1537	4943
1554	1529	4948
1523	1512	4953
1464	1502	4958
1414	1550	4962
1378	1517	4967
1366	1505	4972
1370	1504	4976
1377	1521	4981
1400	1513	4985
1433	1490	4990
1457	1483	4995
1510	1532	5000
1546	1673	5005
1542	1557	5009
1546	1523	5014
1615	1642	5018
1675	1534	5023
1685	1474	5028
1622	1449	5032
1514	1448	5038
1406	1465	5042
1376	1472	5047
1412	1477	5051
1457	1502	5056
1490	1552	5061
1520	1552	5065
1544	1524	5070
1567	1523	5074
1605	1510	5080
1652	1542	5084
1680	1561	5089
1704	1517	5094
1736	1480	5098
1757	1470	5103
1745	1522	5107
1709	1605	5112
1657	1515	5117
1624	1504	5122
1590	1614	5127
1540	1575	5131
1501	1494	5136
1511	1470	5140
1514	1455	5145
1502	1510	5150
1472	1603	5154
1443	1579	5159
1417	1525	5164
1423	1448	5169
1432	1428	5174
1463	1434	5178
1492	1516	5183
1516	1604	5187
1516	1516	5192
1537	1477	5196
1547	1470	5201
1474	1508	5207
1392	1539	5211
1347	1486	5216
1371	1484	5220
1423	1502	5225
1435	1545	5229
1422	1602	5234
1401	1671	5239
1397	1603	5243
1391	1514	5249
1394	1474	5253
1405	1492	5258
1417	1514	5263
1453	1530	5267
1477	1511	5272
1487	1497	5276
1496	1494	5281
1468	1499	5285
1427	1515	5291
1402	1568	5296
1412	1614	5300
1426	1573	5305
1431	1563	5309
1431	1625	5314
1409	1665	5318
1384	1561	5323
1381	1515	5328
1395	1498	5332
1410	1509	5338
1434	1607	5342
1462	1754	5347
1480	1670	5352
1504	1548	5356
1563	1489	5361
1610	1506	5365
1590	1550	5370
1534	1503	5374
1502	1501	5380
1478	1498	5385
1455	1501	5389
1449	1511	5394
1449	1516	5398
1445	1527	5403
1435	1580	5407
1419	1642	5412
1415	1573	5417
1422	1532	5422
1435	1528	5427
1462	1616	5431
1496	1689	5436
1522	1617	5441
1525	1529	5445
1535	1493	5450
1546	1518	5454
1551	1588	5459
1508	1580	5464
1469	1522	5469
1453	1491	5474
1459	1482	5478
1482	1495	5483
1486	1516	5487
1484	1536	5492
1484	1530	5496
1478	1579	5501
1482	1566	5507
1488	1522	5511
1501	1516	5516
1517	1584	5520
1515	1692	5525
1506	1588	5530
1536	1527	5534
1574	1606	5539
1614	1612	5543
1627	1507	5549
1639	1471	5553
1645	1461	5558
1670	1465	5563
1700	1463	5567
1714	1466	5572
1707	1480	5576
1686	1486	5581
1655	1502	5586
1634	1511	5591
1610	1567	5596
1598	1680	5600
1589	1681	5605
1552	1634	5609
1525	1533	5614
1542	1456	5619
1583	1438	5623
1610	1478	5628
1578	1504	5633
1531	1493	5638
1503	1465	5642
1533	1460	5647
1551	1466	5652
1542	1486	5656
1517	1486	5661
1460	1505	5665
1418	1590	5670
1410	1575	5676
1431	1560	5680
1443	1549	5685
1451	1551	5689
1465	1579	5694
1460	1550	5698
1467	1482	5703
1492	1472	5708
1518	1479	5712
1511	1474	5718
1502	1476	5722
1495	1491	5727
1481	1492	5731
1467	1495	5736
1456	1515	5741
1446	1567	5745
1431	1548	5750
1428	1509	5754
1432	1514	5760
1425	1655	5765
1402	1652	5769
1390	1544	5774
1361	1502	5778
1377	1515	5783
1429	1468	5787
1513	1526	5792
1640	1546	5797
1714	1531	5801
1710	1424	5807
1636	1393	5811
1561	1389	5816
1515	1399	5821
1482	1417	5825
1455	1429	5830
1431	1446	5834
1403	1526	5839
1380	1567	5843
1396	1487	5849
1424	1457	5854
1440	1464	5858
1464	1617	5863
1470	1666	5867
1489	1572	5872
1480	1475	5876
1538	1441	5881
1591	1428	5886
1606	1470	5891
1558	1593	5896
1491	1532	5900
1431	1545	5905
1382	1494	5910
1384	1453	5914
1421	1481	5919
1426	1551	5923
1354	1629	5928
1279	1534	5933
1325	1422	5938
1470	1346	5943
1609	1336	5947
1630	1359	5952
1568	1405	5956
1524	1537	5961
1546	1533	5965
1586	1596	5970
1617	1500	5976
1629	1415	5980
1644	1439	5985
1631	1440	5989
1560	1500	5994
1516	1576	5999
1473	1516	6003
1444	1408	6008
1467	1500	6012
1476	1508	6018
1490	1380	6022
1547	1317	6027
1588	1304	6032
1638	1350	6036
1674	1556	6041
1697	1612	6045
1694	1388	6050
1692	1413	6055
1698	1437	6060
1667	1555	6065
1633	1464	6069
1624	1371	6074
1612	1466	6078
1600	1389	6083
1570	1249	6088
1547	1320	6092
1558	1456	6097
1535	1387	6102
1509	1339	6107
1498	1376	6111
1463	1627	6116
1419	1479	6121
1425	1337	6125
1468	1407	6130
1494	1400	6134
1537	1384	6139
1575	1536	6145
1543	1393	6149
1501	1366	6154
1463	1515	6158
1437	1482	6163
1413	1489	6167
1413	1375	6172
1416	1346	6177
1456	1442	6181
1460	1613	6187
1418	1486	6191
1395	1445	6196
1382	1531	6200
1362	1360	6205
1407	1307	6210
1466	1333	6214
1442	1581	6219
1363	1746	6223
1361	1555	6228
1439	1476	6234
1458	1564	6238
1387	1719	6243
1425	1540	6247
1464	1390	6252
1477	1324	6256
1381	1470	6261
1313	1484	6266
1306	1347	6270
1353	1297	6276
1401	1298	6280
1414	1405	6285
1441	1514	6290
1431	1468	6294
1409	1366	6299
1379	1362	6303
1420	1429	6308
1458	1670	6312
1474	1502	6318
1468	1444	6323
1516	1427	6327
1561	1390	6332
1563	1428	6336
1506	1398	6341
1424	1666	6345
1336	1747	6350
1347	1779	6355
1403	1577	6360
1436	1558	6365
1364	1627	6369
1310	1607	6374
1361	1447	6379
1428	1295	6383
1394	1352	6388
1350	1346	6392
1342	1277	6397
1368	1227	6402
1334	1252	6407
1325	1317	6412
1401	1273	6416
1502	1266	6421
1541	1278	6425
1541	1301	6430
1537	1333	6434
1522	1408	6439
1500	1430	6445
1501	1490	6449
1514	1368	6454
1489	1374	6458
1472	1448	6463
1508	1516	6468
1491	1489	6472
1511	1463	6477
1533	1440	6481
1524	1465	6487
1530	1374	6491
1567	1298	6496
1573	1280	6501
1539	1321	6505
1492	1275	6510
1480	1292	6514
1490	1276	6519
1519	1284	6523
1558	1382	6529
1594	1454	6534
1612	1419	6538
1606	1332	6543
1601	1323	6547
1657	1511	6552
1662	1675	6557
1605	1543	6561
1561	1449	6566
1554	1341	6571
1542	1280	6576
1514	1278	6580
1454	1367	6585
1408	1301	6590
1425	1276	6594
1456	1277	6599
1486	1295	6603
1505	1327	6608
1541	1361	6614
1615	1409	6618
1697	1454	6623
1687	1537	6627
1577	1543	6632
1468	1508	6636
1359	1512	6641
1349	1380	6646
1409	1292	6650
1477	1269	6656
1500	1287	6660
1485	1305	6665
1446	1339	6669
1418	1347	6674
1410	1369	6679
1406	1398	6683
1425	1543	6688
1447	1461	6692
1460	1399	6697
1462	1382	6703
1505	1415	6707
1511	1617	6712
1480	1574	6716
1417	1533	6721
1342	1531	6725
1311	1421	6730
1370	1403	6735
1403	1383	6739
1418	1348	6745
1429	1352	6749
1430	1380	6754
1434	1451	6758
1450	1441	6763
1461	1457	6768
1461	1467	6772
1508	1563	6777
1553	1513	6781
1521	1467	6787
1425	1442	6792
1350	1452	6796
1313	1469	6801
1313	1454	6805
1384	1479	6810
1440	1483	6814
1470	1415	6819
1482	1404	6824
1480	1441	6829
1470	1461	6834
1457	1453	6838
1467	1462	6843
1497	1479	6847
1552	1611	6852
1595	1547	6857
1593	1489	6861
1509	1472	6866
1404	1473	6871
1383	1583	6876
1399	1603	6881
1426	1512	6885
1445	1422	6890
1449	1406	6894
1450	1411	6899
1456	1440	6903
1450	1455	6908
1458	1473	6914
1469	1446	6918
1485	1444	6923
1520	1464	6927
1522	1489	6932
1489	1539	6936
1474	1606	6941
1480	1630	6946
1505	1462	6950
1513	1414	6956
1505	1420	6960
1501	1411	6965
1506	1427	6970
1513	1462	6974
1495	1463	6979
1484	1465	6983
1479	1492	6988
1493	1495	6992
1520	1588	6998
1544	1513	7003
1555	1495	7007
1573	1589	7012
1582	1501	7016
1575	1485	7021
1586	1581	7025
1626	1461	7030
1654	1399	7035
1656	1375	7040
1635	1382	7045
1603	1394	7049
1582	1420	7054
1571	1443	7059
1558	1449	7063
1533	1466	7068
1489	1602	7072
1472	1529	7077
1454	1454	7081
1460	1433	7087
1509	1501	7092
1542	1507	7096
1536	1468	7101
1519	1458	7105
1534	1444	7110
1538	1478	7114
1515	1440	7119
1481	1480	7124
1459	1455	7129
1443	1431	7134
1433	1425	7138
1420	1453	7143
1412	1517	7148
1415	1471	7152
1421	1456	7157
1423	1460	7161
1416	1560	7166
1394	1603	7171
1412	1531	7176
1436	1503	7181
1405	1558	7185
1404	1546	7190
1459	1478	7194
1496	1452	7199
1498	1511	7204
1468	1504	7208
1454	1428	7214
1455	1428	7218
1454	1417	7223
1452	1426	7227
1448	1449	7232
1452	1504	7237
1466	1516	7241
1481	1481	7246
1480	1521	7250
1467	1599	7256
1459	1574	7260
1450	1596	7265
1450	1494	7270
1407	1478	7274
1355	1535	7279
1348	1556	7283
1395	1492	7288
1446	1387	7293
1475	1360	7298
1486	1365	7303
1481	1420	7307
1468	1490	7312
1451	1419	7316
1442	1443	7321
1473	1501	7326
1534	1527	7330
1572	1434	7335
1551	1409	7340
1506	1425	7345
1501	1469	7349
1561	1527	7354
1531	1489	7359
1457	1486	7363
1399	1493	7368
1401	1555	7372
1415	1578	7377
1419	1557	7383
1423	1495	7387
1436	1485	7392
1432	1574	7396
1407	1630	7401
1407	1567	7405
1436	1493	7410
1516	1564	7415
1565	1529	7419
1632	1504	7425
1681	1494	7429
1655	1489	7434
1611	1416	7438
1549	1412	7443
1499	1450	7448
1461	1458	7452
1445	1449	7457
1449	1471	7461
1456	1474	7467
1462	1536	7472
1467	1624	7476
1485	1584	7481
1539	1516	7485
1605	1495	7490
1660	1483	7494
1653	1585	7499
1642	1601	7504
1740	1487	7508
1781	1443	7514
1747	1453	7518
1641	1451	7523
1557	1474	7528
1518	1488	7532
1498	1516	7537
1497	1598	7541
1498	1621	7546
1492	1617	7550
1461	1540	7556
1447	1473	7561
1453	1467	7565
1465	1509	7570
1495	1557	7574
1531	1530	7579
1582	1547	7583
1560	1631	7588
1524	1483	7593
1488	1456	7598
1400	1520	7603
1316	1449	7607
1325	1468	7612
1368	1701	7617
1349	1534	7621
1357	1434	7626
1403	1385	7630
1445	1382	7635
1450	1494	7640
1456	1623	7645
1471	1489	7650
1483	1464	7654
1496	1461	7659
1552	1443	7663
1651	1477	7668
1654	1490	7673
1552	1475	7677
1493	1479	7683
1442	1523	7687
1348	1582	7692
1272	1557	7696
1299	1532	7701
1371	1527	7706
1422	1548	7710
1434	1606	7715
1438	1743	7719
1446	1648	7725
1449	1540	7729
1476	1499	7734
1489	1630	7739
1525	1520	7743
1605	1485	7748
1643	1585	7752
1579	1525	7757
1524	1454	7762
1484	1422	7767
1464	1433	7772
1429	1455	7776
1406	1497	7781
1403	1539	7785
1416	1542	7790
1428	1500	7795
1426	1495	7799
1414	1521	7804
1403	1560	7809
1403	1566	7814
1411	1502	7818
1419	1503	7823
1444	1577	7828
1472	1670	7832
1506	1553	7837
1520	1532	7841
1529	1670	7846
1505	1539	7852
1524	1430	7856
1550	1409	7861
1521	1410	7865
1482	1424	7870
1445	1442	7874
1438	1471	7879
1444	1526	7884
1430	1525	7888
1424	1523	7894
1417	1517	7898
1405	1662	7903
1412	1659	7908
1448	1539	7912
1494	1580	7917
1559	1584	7921
1655	1471	7926
1683	1440	7930
1647	1456	7936
1550	1510	7941
1460	1469	7945
1428	1461	7950
1456	1505	7954
1487	1477	7959
1517	1446	7963
1570	1466	7968
1595	1488	7973
1597	1511	7977
1593	1496	7983
1596	1498	7987
1599	1557	7992
1597	1637	7997
1602	1541	8001
1645	1515	8006
1693	1689	8010
1669	1618	8015
1614	1482	8019
1561	1432	8025
1562	1424	8030
1537	1466	8034
1494	1542	8039
1416	1462	8043
1382	1449	8048
1390	1459	8052
1432	1480	8057
1444	1469	8062
1434	1474	8067
1423	1490	8072
1429	1534	8076
1439	1530	8081
1444	1508	8086
1450	1500	8090
1515	1520	8095
1586	1615	8099
1602	1654	8104
1569	1568	8109
1508	1544	8114
1464	1588	8119
1444	1546	8123
1418	1494	8128
1392	1490	8132
1356	1478	8137
1345	1483	8142
1360	1600	8146
1382	1591	8152
1394	1451	8156
1393	1401	8161
1403	1390	8165
1416	1401	8170
1446	1429	8175
1487	1485	8179
1543	1493	8184
1558	1576	8188
1595	1495	8194
1599	1468	8198
1576	1463	8203
1453	1529	8208
1342	1580	8212
1288	1540	8217
1324	1493	8221
1371	1459	8226
1410	1448	8231
1439	1460	8236
1453	1506	8241
1451	1536	8245
1432	1499	8250
1426	1484	8254
1436	1497	8259
1479	1555	8264
1546	1636	8268
1565	1561	8273
1538	1512	8278
1485	1554	8283
1482	1538	8287
1505	1466	8292
1514	1447	8297
1496	1459	8301
1470	1497	8306
1426	1468	8310
1412	1457	8315
1411	1466	8321
1417	1499	8325
1413	1652	8330
1412	1594	8334
1422	1496	8339
1434	1461	8343
1452	1455	8348
1498	1507	8353
1544	1559	8357
1577	1531	8363
1584	1497	8367
1563	1490	8372
1549	1482	8376
1497	1498	8381
1439	1570	8386
1372	1660	8390
1365	1616	8395
1449	1559	8399
1493	1515	8404
1507	1494	8410
1509	1556	8414
1504	1662	8419
1489	1566	8423
1478	1519	8428
1502	1484	8432
1547	1459	8437
1617	1465	8442
1704	1467	8446
1756	1519	8452
1752	1532	8456
1693	1491	8461
1654	1483	8466
1627	1489	8470
1615	1526	8475
1579	1561	8479
1524	1610	8484
1474	1600	8488
1476	1590	8494
1498	1609	8499
1507	1580	8503
1512	1514	8508
1518	1516	8512
1546	1520	8517
1575	1574	8521
1584	1546	8526
1579	1500	8531
1547	1488	8536
1536	1524	8541
1511	1500	8545
1493	1494	8550
1486	1532	8555
1467	1518	8559
1452	1501	8564
1442	1513	8568
1424	1549	8573
1403	1608	8578
1397	1623	8583
1397	1576	8588
1396	1505	8592
1397	1475	8597
1406	1507	8601
1425	1473	8606
1455	1455	8610
1510	1471	8615
1541	1494	8621
1526	1492	8625
1478	1489	8630
1445	1550	8634
1361	1673	8639
1301	1614	8644
1297	1529	8648
1358	1514	8653
1418	1466	8657
1440	1454	8663
1441	1454	8667
1435	1472	8672
1425	1484	8677
1428	1565	8681
1444	1559	8686
1473	1529	8690
1501	1516	8695
1554	1514	8700
1611	1543	8705
1611	1624	8710
1579	1602	8714
1515	1555	8719
1471	1569	8723
1436	1629	8728
1433	1554	8733
1458	1481	8737
1480	1482	8742
1474	1513	8747
1450	1500	8752
1425	1469	8756
1414	1470	8761
1411	1478	8766
1408	1493	8770
1414	1507	8775
1418	1525	8779
1424	1527	8784
1441	1546	8790
1441	1540	8794
1439	1563	8799
1487	1626	8803
1528	1600	8808
1538	1529	8812
1534	1506	8817
1526	1531	8822
1549	1550	8826
1556	1577	8832
1543	1522	8836
1505	1581	8841
1471	1567	8845
1460	1492	8850
1455	1513	8855
1442	1494	8859
1403	1439	8864
1403	1436	8868
1429	1447	8873
1460	1451	8879
1492	1477	8883
1542	1495	8888
1553	1523	8892
1549	1501	8897
1553	1546	8901
1557	1599	8906
1565	1514	8911
1560	1522	8915
1556	1490	8921
1572	1441	8925
1595	1460	8930
1615	1534	8935
1593	1569	8939
1582	1488	8944
1580	1435	8948
1618	1413	8953
1669	1412	8957
1700	1415	8963
1680	1431	8968
1628	1509	8972
1563	1577	8977
1492	1503	8981
1504	1446	8986
1532	1422	8990
1543	1423	8995
1537	1492	9000
1516	1481	9005
1498	1449	9010
1484	1427	9014
1478	1428	9019
1480	1448	9024
1478	1468	9028
1473	1487	9033
1484	1484	9037
1492	1524	9042
1516	1549	9047
1524	1508	9052
1510	1558	9057
1483	1607	9061
1479	1526	9066
1495	1482	9070
1520	1485	9075
1545	1616	9079
1540	1512	9084
1508	1456	9090
1475	1472	9094
1422	1491	9099
1403	1424	9103
1403	1412	9108
1425	1416	9113
1433	1493	9117
1399	1574	9122
1392	1481	9126
1422	1430	9132
1462	1408	9136
1507	1418	9141
1553	1498	9146
1555	1649	9150
1542	1509	9155
1528	1423	9159
1513	1389	9164
1502	1383	9168
1488	1399	9174
1448	1467	9179
1400	1465	9183
1382	1454	9188
1397	1482	9192
1446	1453	9197
1498	1453	9202
1504	1518	9206
1455	1586	9211
1404	1484	9216
1408	1445	9221
1460	1432	9225
1502	1434	9230
1525	1448	9235
1526	1469	9239
1513	1472	9244
1503	1482	9248
1504	1505	9253
1512	1564	9259
1528	1571	9263
1546	1545	9268
1586	1613	9272
1608	1558	9277
1619	1493	9281
1622	1547	9286
1605	1531	9291
1565	1511	9295
1516	1487	9300
1465	1442	9305
1442	1416	9310
1443	1403	9314
1452	1405	9319
1470	1422	9324
1468	1437	9328
1467	1466	9333
1472	1532	9337
1478	1497	9342
1482	1490	9348
1526	1617	9352
1579	1554	9357
1593	1518	9361
1585	1448	9366
1619	1408	9370
1618	1399	9375
1576	1409	9380
1522	1422	9384
1470	1450	9390
1463	1461	9394
1449	1512	9399
1497	1503	9403
1567	1470	9408
1622	1473	9413
1645	1542	9417
1623	1550	9422
1587	1568	9426
1567	1504	9432
1582	1451	9437
1608	1440	9441
1613	1441	9446
1604	1467	9450
1600	1539	9455
1593	1550	9459
1589	1520	9464
1590	1500	9469
1597	1465	9474
1586	1468	9479
1553	1599	9483
1517	1578	9488
1473	1491	9493
1448	1488	9497
1440	1572	9502
1454	1497	9506
1457	1565	9511
1442	1562	9516
1476	1387	9521
1578	1357	9526
1658	1394	9530
1648	1446	9535
1553	1549	9539
1471	1466	9544
1406	1412	9548
1361	1390	9553
1365	1396	9559
1407	1402	9563
1440	1431	9568
1458	1520	9572
1439	1612	9577
1405	1599	9582
1422	1509	9586
1486	1451	9591
1500	1393	9595
1512	1414	9601
1533	1557	9605
1520	1480	9610
1504	1377	9615
1509	1353	9619
1515	1367	9624
1497	1506	9628
1418	1661	9633
1355	1539	9637
1342	1439	9643
1340	1483	9648
1326	1336	9652
1357	1309	9657
1415	1396	9661
1468	1397	9666
1446	1400	9671
1431	1505	9675
1485	1278	9680
1548	1299	9684
1540	1516	9690
1494	1354	9694
1480	1270	9699
1464	1298	9704
1462	1296	9708
1475	1343	9713
1498	1490	9717
1465	1501	9722
1391	1601	9728
1353	1453	9732
1370	1420	9737
1436	1490	9741
1532	1433	9746
1597	1380	9750
1597	1353	9755
1505	1467	9760
1412	1546	9764
1340	1611	9769
1357	1450	9774
1425	1369	9779
1472	1478	9783
1437	1433	9788
1394	1332	9793
1404	1439	9797
1484	1655	9802
1512	1549	9806
1501	1393	9811
1445	1451	9817
1437	1531	9821
1460	1459	9826
1496	1355	9830
1507	1361	9835
1458	1540	9839
1421	1443	9844
1429	1335	9849
1482	1328	9853
1543	1472	9859
1574	1427	9863
1567	1428	9868
1557	1421	9872
1576	1437	9877
1559	1483	9882
1534	1504	9886
1506	1608	9891
1464	1596	9895
1492	1465	9901
1578	1382	9906
1640	1406	9910
1608	1592	9915
1580	1705	9919
1590	1666	9924
1564	1642	9928
1546	1515	9933
1535	1455	9938
1560	1500	9943
1561	1510	9948
1571	1468	9952
1551	1381	9957
1479	1322	9962
1425	1330	9966
1424	1380	9971
1452	1475	9975
1442	1462	9980
1427	1462	9985
1415	1490	9990
1458	1543	9995
1533	1644	9999
1537	1673	10004
1512	1600	10008
1467	1533	10013
1435	1429	10018
1377	1672	10022
1345	1837	10028
1320	1589	10033
1357	1487	10037
1358	1294	10042
1323	1224	10046
1281	1238	10051
1284	1285	10056
1344	1472	10060
1426	1280	10065
1350	1256	10071
1252	1465	10075
1263	1421	10080
1387	1398	10084
1455	1465	10089
1468	1397	10094
1497	1388	10098
1511	1402	10103
1496	1322	10108
1460	1322	10113
1441	1337	10118
1426	1319	10122
1428	1377	10127
1430	1521	10132
1437	1487	10136
1424	1416	10141
1415	1325	10146
1438	1295	10150
1512	1310	10156
1606	1339	10161
1590	1366	10165
1514	1431	10170
1445	1386	10174
1426	1451	10179
1433	1551	10184
1422	1426	10188
1404	1335	10193
1399	1316	10199
1389	1381	10203
1384	1375	10208
1379	1392	10212
1363	1376	10217
1334	1395	10222
1309	1474	10226
1309	1501	10231
1350	1479	10236
1436	1484	10241
1434	1457	10246
1447	1474	10250
1461	1457	10255
1481	1313	10260
1481	1286	10264
1473	1295	10269
1444	1319	10274
1372	1462	10278
1361	1479	10284
1455	1454	10288
1576	1420	10293
1632	1398	10298
1648	1398	10302
1649	1487	10307
1631	1532	10312
1567	1447	10316
1481	1381	10321
1353	1433	10327
1277	1388	10331
1365	1365	10336
1475	1378	10340
1534	1425	10345
1545	1400	10350
1543	1393	10354
1531	1419	10359
1572	1512	10364
1573	1629	10369
1586	1586	10374
1634	1462	10378
1792	1366	10383
1869	1350	10388
1775	1413	10392
1556	1587	10397
1484	1428	10402
1561	1354	10406
1630	1333	10412
1636	1347	10417
1616	1372	10421
1593	1403	10426
1586	1433	10430
1571	1463	10435
1592	1523	10440
1608	1610	10444
1578	1587	10449
1564	1514	10455
1597	1485	10459
1588	1513	10464
1496	1503	10468
1281	1509	10473
1206	1537	10478
1260	1404	10482
1383	1391	10487
1463	1343	10492
1490	1338	10497
1483	1373	10502
1471	1415	10506
1484	1439	10511
1502	1476	10516
1501	1459	10520
1512	1471	10525
1562	1489	10530
1600	1515	10534
1557	1734	10540
1491	1585	10544
1418	1545	10549
1283	1555	10554
1192	1436	10558
1257	1362	10563
1370	1360	10568
1440	1389	10572
1457	1429	10577
1446	1406	10583
1450	1420	10587
1454	1550	10592
1457	1497	10596
1463	1441	10601
1467	1601	10606
1468	1549	10610
1437	1463	10615
1410	1541	10620
1295	1501	10625
1237	1409	10630
1297	1397	10634
1420	1417	10639
1502	1394	10644
1503	1375	10648
1499	1378	10653
1511	1411	10658
1515	1429	10662
1506	1453	10668
1511	1482	10672
1519	1510	10677
1509	1549	10682
1505	1818	10686
1520	1595	10691
1466	1500	10696
1366	1510	10700
1350	1513	10705
1431	1441	10710
1505	1432	10715
1519	1468	10720
1491	1571	10724
1425	1473	10729
1387	1389	10734
1430	1381	10738
1491	1404	10743
1495	1471	10748
1502	1546	10753
1524	1415	10758
1539	1403	10762
1539	1414	10767
1541	1437	10772
1528	1484	10776
1489	1662	10781
1433	1562	10786
1381	1523	10790
1379	1509	10796
1415	1453	10800
1447	1464	10805
1467	1534	10810
1513	1500	10814
1585	1454	10819
1603	1423	10824
1600	1439	10828
1593	1463	10833
1582	1543	10838
1566	1538	10843
1551	1529	10848
1529	1595	10852
1514	1584	10857
1525	1561	10862
1542	1531	10866
1565	1598	10871
1543	1576	10876
1521	1559	10881
1555	1494	10886
1620	1476	10890
1655	1553	10895
1650	1580	10900
1614	1444	10904
1593	1382	10909
1604	1374	10914
1647	1386	10918
1663	1445	10924
1647	1447	10928
1625	1456	10933
1605	1505	10938
1580	1490	10942
1553	1493	10947
1541	1510	10952
1515	1542	10956
1435	1673	10961
1371	1560	10966
1356	1525	10971
1401	1502	10976
1464	1513	10980
1519	1557	10985
1485	1662	10990
1435	1554	10994
1461	1504	10999
1507	1486	11004
1513	1494	11009
1505	1513	11014
1504	1520	11018
1502	1534	11023
1495	1546	11028
1489	1559	11032
1463	1600	11037
1420	1611	11042
1356	1621	11046
1314	1624	11052
1321	1608	11056
1345	1579	11061
1393	1562	11066
1463	1546	11070
1503	1531	11075
1512	1533	11080
1476	1541	11084
1451	1540	11089
1436	1523	11094
1434	1524	11099
1438	1527	11104
1443	1539	11108
1415	1546	11113
1382	1557	11118
1363	1569	11122
1377	1575	11127
1371	1669	11132
1356	1663	11137
1393	1596	11142
1447	1478	11146
1484	1436	11151
1488	1428	11156
1477	1482	11160
1464	1502	11165
1465	1509	11170
1469	1469	11174
1472	1438	11180
1472	1433	11184
1459	1444	11189
1446	1473	11194
1447	1518	11198
1463	1509	11203
1470	1484	11208
1476	1486	11212
1475	1517	11217
1447	1548	11222
1422	1546	11227
1435	1550	11232
1470	1562	11236
1480	1572	11241
1476	1587	11246
1469	1633	11250
1462	1724	11255
1464	1690	11260
1466	1627	11265
1471	1597	11270
1473	1580	11274
1476	1586	11279
1474	1604	11284
1484	1570	11288
1493	1538	11293
1492	1529	11298
1489	1527	11302
1475	1562	11308
1462	1615	11312
1466	1594	11317
1486	1506	11322
1511	1484	11326
1533	1467	11331
1547	1486	11336
1538	1555	11340
1520	1594	11345
1507	1577	11350
1503	1500	11355
1507	1463	11360
1516	1448	11364
1536	1448	11369
1557	1459	11374
1583	1471	11378
1616	1483	11383
1645	1492	11388
1659	1503	11393
1660	1514	11398
1651	1558	11402
1637	1564	11407
1621	1528	11412
1600	1504	11416
1584	1520	11421
1569	1546	11426
1551	1530	11430
1537	1535	11436
1526	1516	11440
1515	1523	11445
1502	1510	11450
1493	1490	11454
1487	1468	11459
1480	1470	11464
1475	1486	11468
1470	1511	11473
1465	1517	11478
1462	1499	11483
1455	1489	11488
1449	1486	11492
1447	1501	11497
1443	1561	11502
1451	1514	11506
1465	1486	11511
1473	1476	11516
1479	1476	11521
1479	1492	11526
1475	1514	11530
1472	1546	11535
1467	1555	11540
1464	1547	11544
1463	1532	11549
1461	1528	11554
1459	1531	11558
1455	1545	11564
1448	1541	11568
1447	1539	11573
1445	1581	11578
1444	1561	11582
1444	1570	11587
1447	1556	11592
1448	1519	11596
1448	1503	11601
