?I2C Verbindung gefunden!.
1428	1547	4
1466	1537	9
1515	1525	13
1554	1539	18
1571	1533	22
1567	1535	27
1556	1519	31
1554	1522	36
1565	1552	40
1571	1556	45
1562	1594	50
1534	1617	54
1492	1589	59
1484	1564	63
1510	1538	68
1529	1579	72
1514	1547	77
1473	1552	81
1454	1586	87
1473	1550	91
1508	1544	96
1535	1565	100
1557	1563	105
1568	1558	109
1562	1565	114
1554	1566	118
1550	1545	123
1551	1518	128
1565	1531	133
1565	1523	137
1522	1520	142
1473	1526	146
1493	1537	151
1545	1545	156
1576	1563	160
1586	1577	165
1579	1657	169
1557	1660	175
1519	1621	179
1492	1598	184
1498	1595	188
1510	1562	193
1506	1536	197
1511	1541	202
1549	1530	206
1606	1531	211
1628	1526	216
1636	1531	221
1668	1564	225
1703	1597	230
1723	1573	235
1723	1557	239
1694	1555	244
1649	1561	248
1628	1569	253
1626	1566	258
1623	1582	263
1617	1569	267
1604	1585	272
1576	1586	276
1535	1588	281
1520	1570	285
1538	1593	290
1540	1573	294
1523	1587	300
1505	1592	304
1504	1586	309
1514	1574	314
1515	1552	318
1506	1527	323
1490	1535	327
1499	1532	332
1516	1534	336
1521	1532	342
1513	1537	346
1503	1552	351
1484	1596	355
1473	1590	360
1476	1572	364
1472	1563	369
1454	1579	373
1453	1566	378
1480	1578	382
1494	1551	388
1486	1547	393
1492	1533	397
1512	1560	402
1522	1586	406
1517	1545	411
1508	1528	415
1496	1519	420
1481	1532	424
1452	1560	430
1436	1559	434
1445	1589	439
1457	1587	443
1462	1576	448
1454	1550	452
1447	1530	457
1465	1521	461
1497	1523	466
1516	1535	472
1522	1544	476
1523	1548	481
1520	1550	485
1519	1574	490
1514	1640	494
1504	1617	499
1477	1597	503
1429	1594	508
1416	1573	513
1468	1556	518
1517	1531	522
1528	1531	527
1512	1590	531
1516	1544	536
1543	1508	540
1553	1487	545
1546	1483	550
1532	1505	555
1526	1494	560
1524	1490	564
1521	1492	569
1516	1504	573
1508	1594	578
1500	1611	582
1495	1547	587
1496	1516	591
1471	1515	596
1414	1601	601
1406	1569	606
1473	1516	610
1518	1477	615
1533	1461	619
1539	1465	624
1538	1495	629
1540	1478	633
1546	1472	638
1545	1471	643
1541	1491	648
1535	1560	652
1525	1567	657
1519	1552	661
1487	1667	666
1425	1795	670
1382	1726	675
1394	1596	679
1390	1511	685
1384	1450	689
1400	1427	694
1469	1403	698
1523	1390	703
1556	1388	708
1572	1399	712
1587	1410	717
1604	1424	721
1620	1437	727
1554	1459	731
1432	1538	736
1428	1534	740
1545	1509	745
1652	1511	749
1704	1626	754
1726	1531	758
1725	1560	763
1660	1504	768
1615	1457	773
1566	1494	777
1573	1493	782
1590	1441	787
1618	1401	791
1646	1387	796
1655	1392	800
1640	1486	805
1524	1527	809
1365	1464	815
1340	1420	819
1437	1404	824
1430	1628	828
1258	1794	833
1248	1695	837
1408	1544	842
1574	1433	846
1641	1458	851
1574	1610	856
1569	1510	861
1692	1398	865
1753	1340	870
1726	1323	875
1553	1335	879
1313	1379	884
1279	1416	888
1409	1401	893
1494	1407	898
1520	1423	903
1458	1462	907
1358	1507	912
1422	1517	916
1616	1482	921
1627	1613	925
1588	1845	930
1614	1719	934
1693	1570	940
1703	1498	944
1681	1524	949
1585	1606	954
1490	1561	958
1450	1461	963
1481	1394	967
1514	1374	972
1516	1381	976
1375	1433	982
1302	1471	986
1379	1444	991
1492	1434	995
1563	1447	1000
1624	1636	1004
1592	1741	1009
1557	1556	1014
1601	1463	1018
1637	1430	1024
1603	1537	1028
1580	1621	1033
1461	1518	1037
1356	1462	1042
1430	1562	1047
1554	1722	1051
1572	1841	1056
1539	1681	1060
1492	1488	1065
1472	1413	1071
1447	1394	1075
1422	1407	1080
1412	1423	1084
1500	1443	1089
1603	1466	1093
1652	1494	1098
1575	1532	1103
1443	1527	1107
1407	1538	1113
1423	1584	1117
1398	1723	1122
1449	1749	1126
1514	1652	1131
1504	1572	1136
1472	1725	1140
1437	1761	1145
1413	1726	1149
1423	1884	1155
1421	1945	1160
1398	1769	1164
1377	1625	1169
1459	1617	1173
1558	1586	1178
1536	1553	1182
1474	1537	1187
1499	1543	1192
1509	1558	1197
1518	1642	1202
1532	1639	1206
1536	1621	1211
1508	1659	1215
1499	1748	1220
1514	1670	1225
1469	1788	1229
1396	1814	1234
1406	1736	1239
1465	1696	1244
1549	1733	1249
1603	1785	1253
1648	1788	1258
1644	1755	1262
1623	1633	1267
1697	1595	1271
1753	1628	1276
1763	1600	1282
1719	1655	1286
1558	1879	1291
1547	1807	1295
1638	1667	1300
1696	1652	1305
1634	1733	1309
1558	1611	1314
1493	1566	1318
1438	1556	1324
1480	1585	1328
1557	1702	1333
1523	1689	1338
1535	1630	1342
1510	1627	1347
1540	1729	1351
1582	1956	1356
1608	1852	1360
1562	1755	1366
1518	1948	1371
1441	2047	1375
1429	2018	1380
1448	1910	1384
1466	1782	1389
1429	1658	1394
1382	1536	1398
1407	1482	1403
1501	1468	1408
1530	1488	1413
1525	1532	1417
1500	1613	1422
1353	1669	1427
1350	1652	1431
1495	1508	1436
1543	1469	1440
1565	1510	1445
1537	1587	1449
1461	1660	1455
1499	1696	1460
1554	1916	1464
1572	1915	1469
1544	1698	1473
1438	1560	1478
1316	1716	1483
1288	1538	1487
1356	1387	1492
1403	1318	1497
1441	1310	1502
1516	1307	1506
1557	1304	1511
1505	1307	1516
1413	1329	1520
1371	1359	1525
1330	1378	1529
1335	1389	1534
1398	1466	1539
1434	1621	1544
1432	1450	1549
1436	1349	1553
1489	1287	1558
1538	1262	1562
1540	1266	1567
1519	1289	1572
1502	1289	1576
1493	1290	1582
1487	1303	1586
1484	1302	1591
1480	1303	1595
1474	1334	1600
1469	1321	1605
1472	1323	1609
1478	1307	1614
1467	1299	1618
1441	1325	1624
1441	1297	1628
1434	1280	1633
1377	1318	1638
1387	1284	1642
1450	1277	1647
1483	1268	1651
1490	1282	1656
1487	1267	1661
1487	1269	1666
1487	1278	1671
1493	1293	1675
1500	1319	1680
1514	1343	1684
1526	1325	1689
1526	1344	1694
1506	1401	1698
1488	1457	1703
1487	1440	1708
1499	1383	1713
1488	1462	1717
1438	1448	1722
1398	1370	1727
1430	1303	1731
1512	1277	1736
1546	1288	1740
1568	1357	1745
1594	1302	1751
1665	1274	1755
1716	1268	1760
1718	1302	1764
1656	1486	1769
1580	1438	1773
1606	1337	1778
1659	1287	1783
1703	1352	1787
1711	1552	1793
1654	1438	1797
1619	1354	1802
1605	1385	1806
1631	1576	1811
1631	1476	1816
1596	1364	1820
1558	1317	1825
1518	1386	1829
1465	1473	1835
1475	1385	1840
1517	1342	1844
1542	1380	1849
1527	1578	1853
1556	1444	1858
1544	1342	1862
1488	1316	1867
1398	1396	1872
1368	1545	1876
1425	1441	1882
1463	1403	1886
1468	1374	1891
1463	1626	1895
1434	1698	1900
1397	1566	1905
1453	1464	1909
1635	1438	1914
1548	1449	1918
1342	1488	1924
1298	1442	1929
1394	1439	1933
1454	1481	1938
1463	1489	1942
1384	1470	1947
1373	1483	1951
1410	1637	1956
1378	1715	1961
1366	1650	1966
1384	1585	1971
1411	1723	1975
1430	2008	1980
1456	1937	1984
1469	1688	1989
1455	1573	1994
1414	1534	1998
1370	1548	2003
1303	1659	2008
1324	1734	2013
1367	1667	2018
1381	1618	2022
1406	1620	2027
1444	1636	2031
1428	1770	2036
1379	1861	2040
1407	1842	2045
1448	1705	2051
1504	1601	2055
1538	1583	2060
1543	1590	2064
1486	1681	2069
1396	1872	2073
1425	1783	2078
1519	1687	2083
1529	1666	2087
1474	1670	2093
1396	1815	2097
1389	1914	2102
1442	1827	2107
1432	1799	2111
1392	1800	2116
1482	1784	2120
1535	1744	2125
1545	1742	2129
1556	1881	2135
1490	1999	2140
1431	1934	2144
1527	1868	2149
1581	1793	2153
1533	1707	2158
1479	1661	2162
1564	1652	2167
1651	1855	2172
1613	1814	2177
1584	1710	2182
1538	1878	2186
1517	2047	2191
1528	2047	2196
1590	1915	2200
1589	1898	2205
1502	1973	2209
1434	1837	2214
1478	1590	2219
1523	1474	2224
1508	1426	2229
1481	1424	2233
1489	1439	2238
1545	1465	2242
1631	1561	2247
1687	1698	2251
1717	1757	2256
1704	1749	2262
1685	1623	2266
1744	1550	2271
1792	1542	2275
1773	1644	2280
1735	1845	2285
1622	1814	2289
1547	1656	2294
1652	1479	2298
1720	1399	2304
1670	1435	2308
1538	1374	2313
1528	1531	2318
1583	1628	2322
1605	1419	2327
1555	1265	2331
1445	1239	2336
1389	1315	2340
1341	1403	2345
1305	1455	2351
1437	1560	2355
1664	1431	2360
1642	1224	2364
1483	1169	2369
1363	1210	2374
1404	1643	2378
1547	1411	2383
1607	1207	2387
1601	1125	2393
1557	1102	2397
1476	1261	2402
1412	1586	2407
1416	1407	2411
1439	1173	2416
1452	1112	2420
1449	1091	2425
1446	1097	2430
1433	1222	2435
1416	1335	2440
1424	1244	2444
1433	1179	2449
1441	1190	2453
1436	1169	2458
1432	1166	2463
1413	1193	2467
1406	1205	2472
1453	1180	2477
1451	1157	2482
1438	1160	2486
1429	1199	2491
1425	1259	2496
1421	1178	2500
1420	1146	2505
1420	1145	2509
1422	1184	2514
1420	1243	2520
1421	1268	2524
1425	1233	2529
1431	1219	2533
1437	1217	2538
1472	1234	2542
1511	1267	2547
1502	1269	2552
1452	1269	2556
1432	1295	2562
1439	1320	2566
1448	1305	2571
1463	1285	2576
1459	1312	2580
1450	1317	2585
1453	1303	2589
1459	1333	2594
1453	1295	2598
1397	1287	2604
1381	1275	2609
1451	1273	2613
1517	1381	2618
1532	1514	2622
1560	1432	2627
1588	1299	2631
1544	1245	2636
1457	1277	2641
1447	1345	2646
1482	1306	2651
1474	1269	2655
1449	1240	2660
1447	1241	2665
1470	1255	2669
1552	1282	2674
1581	1309	2678
1512	1334	2683
1402	1342	2688
1380	1478	2693
1387	1613	2698
1426	1488	2702
1486	1381	2707
1546	1480	2711
1612	1541	2716
1660	1387	2720
1620	1297	2725
1561	1373	2731
1511	1363	2735
1475	1292	2740
1476	1278	2744
1489	1292	2749
1454	1320	2754
1458	1431	2758
1587	1409	2763
1694	1366	2767
1702	1370	2772
1662	1546	2777
1615	1690	2782
1647	1531	2787
1648	1418	2791
1617	1410	2796
1652	1618	2800
1709	1597	2805
1700	1545	2809
1654	1656	2814
1606	1485	2820
1595	1376	2824
1574	1339	2829
1422	1343	2833
1278	1377	2838
1393	1404	2843
1544	1433	2847
1572	1470	2852
1594	1499	2856
1582	1598	2862
1521	1776	2866
1428	1763	2871
1391	1649	2876
1368	1614	2880
1326	1795	2885
1347	1856	2889
1384	1698	2894
1447	1588	2898
1523	1564	2904
1505	1570	2909
1433	1583	2913
1375	1609	2918
1363	1649	2922
1364	1695	2927
1380	1731	2932
1432	1730	2936
1480	1806	2941
1508	2020	2946
1498	2047	2951
1488	1954	2955
1466	1825	2960
1383	1776	2965
1336	1776	2969
1365	1793	2974
1384	1794	2978
1375	1786	2983
1378	1787	2988
1384	1811	2993
1386	1860	2998
1387	1885	3002
1389	1915	3007
1364	1896	3011
1362	1831	3016
1386	1787	3021
1443	1740	3025
1482	1765	3031
1461	1863	3035
1481	1853	3040
1584	1804	3044
1617	1757	3049
1618	1736	3054
1605	1741	3058
1560	1783	3063
1487	1747	3067
1388	1748	3073
1331	1845	3077
1327	1854	3082
1376	2047	3087
1390	2047	3091
1381	1977	3096
1358	1907	3100
1396	2021	3105
1444	1935	3110
1506	1761	3115
1543	1865	3120
1524	1783	3124
1490	1632	3129
1492	1553	3133
1557	1497	3138
1588	1484	3143
1549	1573	3147
1525	1578	3152
1543	1509	3156
1553	1489	3162
1534	1505	3167
1476	1561	3171
1480	1924	3176
1518	2035	3180
1508	1854	3185
1471	1726	3189
1426	1647	3194
1493	1733	3200
1611	1886	3204
1646	1712	3209
1631	1528	3213
1553	1591	3218
1463	1754	3222
1530	1740	3227
1626	1717	3232
1621	1681	3236
1614	1454	3241
1590	1395	3246
1578	1701	3251
1581	1611	3256
1551	1494	3260
1585	1392	3265
1657	1324	3269
1706	1294	3274
1736	1352	3278
1738	1552	3283
1787	1383	3289
1806	1323	3293
1728	1306	3298
1633	1359	3302
1658	1684	3307
1740	1967	3311
1731	1758	3316
1635	1518	3321
1527	1560	3325
1495	1506	3331
1506	1639	3335
1513	1442	3340
1461	1478	3345
1341	1368	3349
1309	1224	3354
1470	1207	3358
1564	1262	3363
1503	1301	3367
1414	1317	3373
1410	1239	3378
1458	1322	3382
1495	1353	3387
1543	1256	3391
1554	1208	3396
1440	1466	3400
1390	1634	3405
1490	1318	3410
1555	1208	3415
1509	1145	3420
1432	1289	3424
1479	1270	3429
1536	1127	3434
1443	1128	3438
1318	1200	3443
1378	1151	3447
1539	1150	3452
1553	1168	3457
1502	1154	3462
1363	1086	3467
1223	1095	3471
1274	1180	3476
1446	1460	3480
1554	1362	3485
1555	1302	3489
1448	1347	3494
1351	1118	3500
1354	1084	3504
1447	1249	3509
1470	1143	3513
1411	1121	3518
1453	1086	3523
1536	1042	3527
1480	1218	3532
1391	1221	3536
1415	1146	3542
1498	1100	3546
1503	1034	3551
1417	1050	3556
1347	1065	3560
1437	1120	3565
1609	1246	3569
1601	1235	3574
1466	1236	3578
1397	1325	3584
1495	1450	3589
1588	1456	3593
1600	1236	3598
1562	1297	3602
1531	1244	3607
1519	1159	3612
1522	1141	3616
1534	1160	3621
1536	1227	3625
1448	1254	3631
1406	1237	3635
1433	1228	3640
1426	1339	3645
1470	1320	3649
1529	1268	3654
1543	1242	3658
1538	1268	3663
1517	1322	3667
1508	1339	3673
1518	1390	3678
1529	1321	3682
1531	1310	3687
1525	1280	3691
1480	1301	3696
1440	1371	3701
1479	1447	3705
1588	1402	3710
1633	1370	3715
1686	1361	3720
1662	1333	3724
1456	1361	3729
1338	1387	3734
1395	1333	3738
1497	1309	3743
1559	1317	3747
1611	1362	3752
1669	1414	3758
1701	1351	3762
1703	1334	3767
1712	1370	3771
1672	1541	3776
1589	1512	3780
1520	1428	3785
1588	1366	3790
1721	1356	3794
1809	1442	3800
1826	1454	3804
1771	1390	3809
1685	1364	3813
1619	1360	3818
1577	1372	3823
1546	1398	3827
1526	1413	3832
1504	1417	3836
1496	1410	3842
1478	1499	3847
1450	1624	3851
1427	1511	3856
1458	1427	3860
1430	1411	3865
1412	1508	3869
1453	1477	3874
1399	1457	3879
1378	1404	3884
1465	1372	3889
1511	1366	3893
1505	1373	3898
1488	1408	3902
1460	1389	3907
1440	1387	3912
1413	1542	3916
1378	1648	3921
1328	1484	3926
1356	1417	3931
1505	1346	3936
1615	1405	3940
1513	1506	3945
1336	1362	3949
1338	1326	3954
1428	1313	3958
1459	1321	3963
1460	1340	3969
1448	1376	3973
1423	1400	3978
1381	1490	3982
1392	1494	3987
1442	1443	3992
1458	1462	3996
1394	1672	4001
1319	1760	4005
1376	1571	4011
1424	1441	4015
1464	1395	4020
1512	1415	4025
1469	1404	4029
1409	1391	4034
1437	1398	4038
1474	1412	4043
1479	1435	4047
1465	1458	4052
1457	1515	4058
1453	1556	4062
1444	1567	4067
1399	1688	4071
1400	1708	4076
1441	1695	4081
1467	1591	4085
1409	1514	4090
1410	1457	4094
1474	1641	4100
1438	1678	4104
1432	1493	4109
1517	1429	4114
1574	1397	4118
1545	1395	4123
1469	1460	4127
1429	1533	4132
1452	1484	4136
1472	1458	4142
1471	1460	4147
1458	1504	4151
1426	1670	4156
1401	1754	4160
1448	1672	4165
1508	1559	4170
1530	1531	4174
1454	1561	4179
1397	1668	4184
1419	1663	4189
1452	1613	4193
1506	1585	4198
1587	1590	4203
1630	1616	4207
1594	1649	4212
1496	1689	4216
1420	1725	4221
1412	1825	4226
1434	1884	4231
1455	1926	4236
1471	1903	4240
1499	1797	4245
1495	1758	4249
1534	1834	4254
1625	1904	4259
1670	1782	4263
1659	1705	4269
1600	1688	4273
1575	1696	4278
1592	1710	4282
1627	1734	4287
1621	1762	4292
1592	1790	4296
1554	1847	4301
1503	1840	4305
1484	1831	4311
1473	1864	4315
1438	2031	4320
1449	2047	4325
1539	1962	4329
1590	1853	4334
1582	1801	4338
1536	1810	4343
1481	1981	4348
1466	1912	4353
1494	1813	4358
1499	1737	4362
1492	1707	4367
1483	1696	4371
1473	1700	4376
1431	1704	4381
1372	1725	4385
1357	1740	4390
1418	1752	4395
1421	1766	4400
1442	1772	4405
1528	1767	4409
1560	1763	4414
1496	1804	4418
1438	1812	4423
1398	1773	4427
1346	1792	4432
1322	1935	4438
1387	2025	4442
1429	1939	4447
1456	1794	4451
1430	1726	4456
1439	1935	4460
1521	2047	4465
1608	1968	4470
1615	1812	4474
1545	1735	4480
1497	1670	4484
1509	1568	4489
1515	1513	4494
1504	1600	4498
1483	1803	4503
1474	1736	4507
1496	1644	4512
1516	1554	4516
1487	1493	4521
1484	1524	4527
1501	1865	4531
1452	1954	4536
1417	1713	4540
1419	1519	4545
1511	1441	4549
1561	1441	4554
1553	1559	4559
1595	1594	4563
1593	1447	4569
1588	1389	4573
1603	1578	4578
1602	1993	4583
1602	1905	4587
1592	1574	4592
1546	1547	4596
1479	1597	4601
1476	1607	4605
1470	1503	4611
1454	1357	4616
1429	1395	4620
1390	1775	4625
1460	1682	4629
1531	1458	4634
1488	1435	4639
1379	1530	4643
1333	1517	4648
1387	1336	4653
1413	1557	4658
1448	1555	4662
1508	1246	4667
1506	1185	4672
1467	1344	4676
1497	1465	4681
1562	1286	4685
1526	1221	4690
1496	1251	4695
1586	1452	4700
1612	1868	4705
1601	1543	4709
1611	1265	4714
1616	1206	4718
1640	1291	4723
1611	1293	4728
1534	1198	4732
1406	1150	4738
1343	1254	4742
1440	1250	4747
1616	1194	4751
1676	1461	4756
1706	1540	4761
1752	1265	4765
1745	1121	4770
1707	1106	4774
1690	1269	4780
1636	1534	4784
1515	1465	4789
1530	1309	4794
1624	1125	4798
1625	1076	4803
1492	1080	4807
1423	1351	4812
1445	1302	4817
1498	1150	4822
1552	1059	4827
1532	1056	4831
1437	1137	4836
1341	1285	4840
1399	1204	4845
1469	1095	4850
1509	1057	4854
1610	1097	4859
1611	1277	4864
1490	1374	4869
1416	1151	4874
1397	1147	4878
1458	1405	4883
1590	1223	4887
1617	1077	4892
1490	1223	4896
1380	1240	4901
1373	1156	4907
1422	1192	4911
1494	1117	4916
1515	1125	4920
1481	1376	4925
1439	1329	4929
1418	1195	4934
1412	1230	4939
1404	1404	4943
1380	1342	4948
1346	1225	4953
1340	1209	4958
1346	1351	4963
1377	1352	4967
1392	1328	4972
1418	1267	4976
1495	1260	4981
1552	1272	4985
1510	1206	4990
1387	1194	4996
1360	1300	5000
1413	1239	5005
1449	1226	5009
1489	1258	5014
1504	1305	5018
1490	1381	5023
1479	1408	5028
1395	1328	5032
1265	1429	5038
1331	1326	5042
1608	1275	5047
1720	1349	5052
1618	1332	5056
1477	1324	5061
1407	1287	5065
1444	1274	5070
1495	1283	5074
1503	1299	5080
1506	1330	5085
1515	1398	5089
1564	1461	5094
1586	1437	5098
1554	1409	5103
1521	1387	5107
1597	1486	5112
1651	1509	5117
1609	1405	5122
1470	1372	5127
1228	1384	5131
1132	1606	5136
1310	1403	5141
1481	1331	5145
1548	1305	5150
1563	1316	5154
1567	1345	5159
1564	1354	5164
1553	1365	5169
1553	1376	5174
1551	1393	5178
1571	1453	5183
1610	1537	5187
1671	1441	5192
1735	1406	5196
1652	1421	5201
1495	1546	5207
1390	1563	5211
1394	1476	5216
1427	1399	5220
1426	1381	5225
1465	1504	5230
1554	1394	5234
1592	1349	5239
1621	1334	5243
1615	1340	5249
1582	1371	5253
1623	1422	5258
1696	1431	5263
1732	1390	5267
1767	1406	5272
1751	1621	5276
1643	1541	5281
1555	1452	5285
1549	1371	5291
1501	1405	5296
1347	1505	5300
1287	1396	5305
1393	1319	5309
1510	1285	5314
1542	1289	5319
1545	1310	5323
1560	1343	5328
1554	1370	5332
1556	1373	5338
1564	1394	5342
1587	1445	5347
1511	1583	5352
1453	1554	5356
1453	1447	5361
1378	1477	5365
1291	1676	5370
1335	1585	5376
1416	1450	5380
1438	1690	5385
1432	1718	5389
1406	1441	5394
1402	1340	5398
1365	1318	5403
1299	1338	5408
1370	1416	5412
1502	1402	5417
1534	1388	5422
1481	1390	5427
1346	1418	5431
1240	1471	5436
1256	1504	5441
1338	1514	5445
1463	1613	5450
1549	1786	5454
1522	1745	5459
1466	1606	5465
1419	1769	5469
1408	1645	5474
1416	1477	5478
1391	1438	5483
1321	1420	5487
1281	1432	5492
1316	1450	5497
1423	1466	5501
1488	1491	5507
1509	1513	5511
1485	1534	5516
1445	1546	5520
1420	1584	5525
1440	1632	5530
1455	1775	5534
1571	1840	5539
1610	1960	5543
1585	1792	5549
1521	1631	5554
1421	1604	5558
1359	1681	5563
1382	1732	5567
1403	1649	5572
1369	1633	5576
1310	1651	5581
1293	1670	5586
1356	1683	5591
1455	1700	5596
1460	1715	5600
1434	1741	5605
1425	1832	5610
1453	1834	5614
1486	1780	5619
1491	1802	5623
1526	1899	5628
1619	1995	5633
1660	1868	5638
1588	1797	5643
1438	1761	5647
1301	1791	5652
1286	1841	5656
1337	1756	5661
1419	1731	5665
1478	1721	5670
1493	1724	5676
1470	1731	5680
1436	1753	5685
1408	1754	5689
1422	1779	5694
1451	1794	5699
1490	1791	5703
1543	1790	5708
1612	1782	5712
1699	1769	5718
1697	1770	5722
1664	1876	5727
1675	2026	5732
1724	1893	5736
1728	1800	5741
1697	1789	5745
1659	1788	5750
1628	1684	5754
1549	1669	5760
1492	1674	5765
1465	1764	5769
1434	1810	5774
1428	1701	5778
1481	1656	5783
1548	1639	5788
1527	1645	5792
1508	1747	5797
1532	1830	5801
1577	1769	5807
1626	1685	5811
1620	1640	5816
1527	1657	5821
1439	1798	5825
1443	1847	5830
1537	1712	5834
1603	1639	5839
1600	1619	5843
1618	1649	5849
1551	1812	5854
1400	1930	5858
1387	1840	5863
1507	1701	5867
1571	1708	5872
1590	1601	5877
1577	1633	5881
1536	1848	5886
1492	1917	5891
1501	1761	5896
1525	1573	5900
1491	1491	5905
1481	1425	5910
1442	1567	5914
1372	1777	5919
1473	1770	5923
1606	1723	5928
1618	1682	5934
1522	1706	5938
1509	1631	5943
1561	1448	5947
1599	1353	5952
1581	1412	5956
1519	1708	5961
1444	1559	5966
1495	1386	5970
1556	1539	5976
1542	1895	5980
1570	1661	5985
1662	1460	5989
1684	1474	5994
1599	1676	5999
1555	1612	6003
1501	1745	6008
1435	1591	6012
1435	1388	6018
1557	1316	6023
1607	1281	6027
1533	1300	6032
1402	1376	6036
1257	1426	6041
1326	1705	6045
1517	1515	6050
1622	1292	6055
1555	1230	6060
1382	1503	6065
1350	1859	6069
1528	1629	6074
1659	1354	6079
1603	1389	6083
1509	1257	6088
1434	1178	6092
1407	1452	6097
1497	1523	6102
1589	1191	6107
1541	1100	6112
1381	1095	6116
1286	1212	6121
1348	1437	6125
1496	1354	6130
1623	1184	6134
1718	1178	6139
1732	1201	6145
1657	1256	6149
1498	1587	6154
1420	1381	6158
1522	1156	6163
1570	1096	6168
1603	1103	6172
1625	1185	6177
1589	1271	6181
1462	1176	6187
1394	1196	6191
1448	1257	6196
1563	1492	6201
1670	1486	6205
1691	1426	6210
1666	1188	6214
1706	1106	6219
1763	1202	6223
1786	1118	6228
1732	1317	6234
1573	1453	6238
1485	1095	6243
1481	1038	6247
1512	1040	6252
1531	1123	6257
1547	1359	6261
1583	1182	6266
1593	1052	6270
1549	1019	6276
1526	1063	6280
1528	1153	6285
1517	1193	6290
1578	1271	6294
1660	1201	6299
1683	1301	6303
1717	1410	6308
1676	1272	6312
1602	1281	6318
1526	1321	6323
1493	1260	6327
1487	1195	6332
1480	1199	6336
1447	1312	6341
1333	1411	6346
1217	1360	6350
1298	1285	6355
1505	1273	6360
1570	1227	6365
1550	1260	6369
1445	1223	6374
1225	1251	6379
1282	1369	6383
1474	1232	6388
1556	1185	6392
1558	1240	6397
1558	1371	6403
1590	1311	6407
1579	1344	6412
1544	1304	6416
1509	1233	6421
1501	1297	6425
1469	1388	6430
1363	1301	6435
1252	1304	6439
1285	1324	6445
1420	1288	6449
1512	1278	6454
1422	1377	6458
1310	1526	6463
1383	1355	6468
1524	1287	6472
1588	1270	6477
1644	1287	6481
1693	1322	6487
1683	1374	6492
1623	1359	6496
1550	1343	6501
1521	1349	6505
1503	1378	6510
1383	1520	6514
1313	1453	6519
1429	1398	6524
1510	1361	6529
1514	1360	6534
1461	1423	6538
1447	1511	6543
1500	1418	6547
1541	1384	6552
1603	1382	6557
1662	1477	6561
1610	1516	6566
1541	1424	6571
1512	1381	6576
1503	1403	6581
1492	1704	6585
1465	1609	6590
1481	1429	6594
1525	1345	6599
1533	1327	6603
1479	1337	6608
1324	1399	6614
1294	1390	6618
1526	1375	6623
1674	1370	6627
1666	1385	6632
1588	1487	6636
1509	1425	6641
1505	1357	6646
1548	1324	6650
1602	1387	6656
1601	1523	6660
1464	1455	6665
1396	1314	6670
1489	1270	6674
1699	1268	6679
1815	1307	6683
1811	1319	6688
1763	1332	6692
1690	1350	6697
1651	1389	6703
1612	1432	6707
1591	1435	6712
1549	1465	6716
1457	1729	6721
1514	1584	6725
1654	1461	6730
1713	1576	6735
1752	1796	6739
1749	1566	6745
1721	1413	6749
1660	1464	6754
1562	1551	6759
1518	1415	6763
1511	1368	6768
1439	1356	6772
1353	1371	6777
1289	1420	6781
1320	1578	6787
1410	1480	6792
1499	1438	6796
1500	1425	6801
1438	1504	6805
1365	1663	6810
1447	1746	6814
1586	1610	6819
1610	1478	6824
1556	1566	6829
1498	1732	6834
1448	1509	6838
1396	1391	6843
1388	1405	6848
1405	1459	6852
1379	1447	6857
1359	1431	6861
1421	1429	6866
1479	1445	6871
1476	1499	6876
1438	1589	6881
1453	1524	6885
1454	1505	6890
1394	1534	6894
1351	1669	6899
1386	1833	6904
1481	1733	6908
1580	1675	6914
1559	1710	6918
1476	1784	6923
1456	1708	6927
1449	1607	6932
1442	1589	6937
1386	1604	6941
1269	1658	6946
1243	1697	6950
1319	1684	6956
1457	1686	6960
1553	1690	6965
1569	1701	6970
1547	1740	6974
1529	1811	6979
1492	1777	6983
1467	1737	6988
1451	1777	6993
1453	1928	6998
1454	2039	7003
1409	1900	7007
1404	1788	7012
1472	1747	7016
1461	1780	7021
1365	1768	7026
1353	1718	7030
1418	1692	7035
1492	1688	7040
1524	1702	7045
1522	1706	7049
1496	1716	7054
1469	1731	7059
1435	1814	7063
1414	1829	7068
1423	1768	7072
1436	1752	7077
1386	1780	7083
1436	1803	7087
1546	1884	7092
1610	1883	7096
1613	1783	7101
1573	1747	7105
1514	1739	7110
1525	1744	7115
1532	1721	7119
1512	1711	7124
1489	1712	7129
1481	1725	7134
1482	1748	7139
1480	1752	7143
1412	1738	7148
1310	1729	7152
1351	1772	7157
1568	1912	7161
1760	1881	7166
1860	1790	7172
1809	1690	7176
1686	1651	7181
1607	1674	7185
1611	1798	7190
1661	1750	7194
1610	1678	7199
1479	1660	7204
1480	1664	7208
1569	1607	7214
1601	1676	7218
1595	1881	7223
1613	2001	7228
1635	1873	7232
1603	1675	7237
1691	1565	7241
1794	1528	7246
1783	1618	7250
1690	1945	7256
1580	1944	7261
1498	1794	7265
1430	1809	7270
1442	1869	7274
1467	1682	7279
1484	1630	7283
1509	1659	7288
1519	1649	7293
1511	1544	7298
1542	1476	7303
1560	1380	7307
1474	1328	7312
1462	1328	7317
1553	1490	7321
1644	1774	7326
1616	1694	7330
1450	1477	7335
1457	1441	7340
1621	1498	7345
1657	1447	7350
1521	1386	7354
1406	1355	7359
1479	1607	7363
1618	1747	7368
1617	1548	7372
1605	1449	7377
1610	1521	7383
1573	1901	7387
1512	1782	7392
1493	1507	7396
1424	1352	7401
1248	1540	7406
1259	1719	7410
1446	1755	7415
1528	1526	7419
1404	1444	7425
1323	1430	7429
1404	1627	7434
1547	1481	7439
1630	1182	7443
1596	1165	7448
1519	1156	7452
1440	1187	7457
1385	1295	7462
1472	1271	7467
1533	1223	7472
1470	1314	7476
1445	1518	7481
1534	1346	7485
1483	1204	7490
1380	1174	7495
1479	1296	7499
1589	1611	7504
1485	1621	7508
1374	1535	7514
1378	1435	7518
1414	1248	7523
1428	1198	7528
1419	1370	7532
1388	1426	7537
1397	1263	7541
1416	1106	7546
1377	1088	7552
1438	1099	7556
1485	1175	7561
1477	1200	7565
1529	1132	7570
1566	1134	7574
1550	1296	7579
1563	1591	7584
1570	1473	7588
1553	1216	7593
1529	1143	7598
1500	1148	7603
1507	1169	7607
1555	1274	7612
1463	1351	7617
1417	1434	7621
1521	1195	7626
1678	1197	7630
1846	1161	7635
1913	1001	7641
1834	1070	7645
1770	1210	7650
1742	1185	7654
1624	1192	7659
1526	1381	7663
1585	1213	7668
1678	1172	7673
1703	1191	7677
1693	1213	7683
1662	1263	7687
1646	1324	7692
1603	1289	7697
1556	1258	7701
1563	1423	7706
1573	1288	7710
1581	1258	7715
1563	1308	7719
1563	1346	7725
1559	1230	7730
1542	1271	7734
1528	1293	7739
1509	1281	7743
1484	1332	7748
1464	1249	7752
1468	1229	7757
1481	1241	7762
1479	1292	7767
1465	1445	7772
1425	1549	7776
1444	1359	7781
1551	1290	7786
1498	1276	7790
1396	1385	7795
1397	1340	7799
1480	1330	7804
1494	1308	7809
1482	1306	7814
1481	1314	7819
1475	1324	7823
1473	1319	7828
1470	1358	7832
1484	1456	7837
1540	1447	7841
1558	1446	7846
1525	1500	7852
1478	1401	7856
1377	1368	7861
1344	1536	7865
1374	1461	7870
1449	1349	7875
1478	1314	7879
1481	1318	7884
1520	1338	7888
1537	1369	7894
1517	1392	7898
1488	1390	7903
1486	1396	7908
1492	1420	7912
1483	1632	7917
1472	1475	7921
1489	1383	7926
1506	1352	7930
1577	1373	7936
1624	1565	7941
1603	1473	7945
1554	1397	7950
1501	1365	7954
1442	1338	7959
1415	1324	7964
1419	1326	7968
1441	1344	7973
1452	1349	7977
1429	1390	7983
1408	1422	7987
1437	1322	7992
1434	1301	7997
1330	1450	8001
1345	1581	8006
1548	1513	8010
1661	1331	8015
1650	1280	8020
1597	1501	8025
1532	1441	8030
1506	1290	8034
1515	1245	8039
1521	1246	8043
1525	1281	8048
1521	1317	8053
1461	1349	8057
1397	1386	8062
1447	1413	8067
1574	1444	8072
1574	1477	8076
1446	1558	8081
1415	1635	8086
1538	1608	8090
1588	1490	8095
1634	1424	8099
1711	1524	8104
1811	1576	8110
1811	1417	8114
1730	1452	8119
1638	1407	8123
1578	1341	8128
1578	1343	8132
1559	1377	8137
1595	1409	8142
1654	1444	8146
1694	1480	8152
1600	1493	8156
1503	1479	8161
1443	1584	8165
1480	1911	8170
1535	1798	8175
1580	1584	8179
1549	1568	8184
1507	1545	8188
1522	1432	8194
1668	1534	8199
1695	1591	8203
1542	1419	8208
1341	1393	8212
1190	1409	8217
1188	1445	8221
1250	1495	8226
1255	1577	8231
1314	1635	8236
1420	1579	8241
1480	1565	8245
1483	1580	8250
1405	1669	8254
1371	1926	8259
1423	1839	8264
1505	1640	8268
1563	1590	8273
1595	1603	8278
1543	1622	8283
1448	1659	8288
1334	1633	8292
1334	1636	8297
1364	1648	8301
1322	1680	8306
1295	1701	8310
1346	1717	8315
1396	1735	8321
1421	1745	8325
1444	1777	8330
1511	1941	8334
1569	2047	8339
1555	1877	8344
1485	1754	8348
1412	1732	8353
1325	1816	8357
1312	1928	8363
1385	1844	8367
1455	1734	8372
1451	1702	8377
1388	1697	8381
1288	1709	8386
1248	1713	8390
1318	1717	8395
1386	1728	8399
1427	1735	8404
1440	1745	8410
1415	1753	8414
1380	1763	8419
1384	1772	8423
1412	1785	8428
1470	1794	8433
1568	1808	8437
1591	1820	8442
1543	1829	8446
1534	1850	8452
1526	1920	8456
1460	1957	8461
1372	1875	8466
1369	1794	8470
1440	1757	8475
1487	1735	8479
1503	1737	8484
1512	1740	8488
1454	1742	8494
1359	1764	8499
1322	1782	8503
1444	1754	8508
1576	1749	8512
1628	1814	8517
1677	1911	8522
1659	1935	8526
1552	1865	8531
1475	1814	8536
1483	1874	8541
1497	1903	8545
1519	1788	8550
1553	1730	8555
1577	1772	8559
1548	1755	8564
1505	1594	8568
1571	1527	8573
1665	1501	8579
1750	1510	8583
1752	1565	8588
1777	1585	8592
1857	1697	8597
1854	2047	8601
1791	2047	8606
1723	1824	8611
1630	1673	8615
1597	1596	8621
1670	1474	8625
1784	1409	8630
1758	1401	8634
1670	1769	8639
1601	1916	8644
1582	1593	8648
1571	1376	8653
1546	1333	8657
1570	1580	8663
1641	1713	8668
1660	1539	8672
1555	1618	8677
1490	1894	8681
1520	1561	8686
1628	1330	8690
1622	1296	8695
1514	1537	8700
1440	1890	8705
1463	1590	8710
1452	1503	8714
1390	1591	8719
1377	1447	8723
1442	1505	8728
1580	1378	8733
1604	1541	8737
1555	1539	8742
1542	1331	8747
1496	1212	8752
1488	1437	8757
1564	1523	8761
1553	1531	8766
1428	1716	8770
1432	1339	8775
1479	1203	8779
1469	1419	8784
1466	1513	8790
1564	1231	8794
1564	1240	8799
1498	1423	8803
1494	1211	8808
1517	1245	8813
1471	1538	8817
1417	1423	8822
1430	1268	8826
1435	1469	8832
1490	1301	8836
1517	1186	8841
1413	1311	8846
1363	1261	8850
1435	1134	8855
1511	1169	8859
1534	1173	8864
1443	1262	8868
1392	1640	8873
1431	1502	8879
1479	1252	8883
1495	1153	8888
1491	1150	8892
1432	1124	8897
1374	1225	8902
1351	1566	8906
1463	1335	8911
1515	1189	8915
1507	1186	8921
1509	1302	8925
1527	1309	8930
1536	1373	8935
1464	1456	8939
1426	1437	8944
1437	1206	8948
1429	1168	8953
1416	1230	8957
1256	1380	8963
1047	1238	8968
1185	1145	8972
1431	1201	8977
1564	1136	8981
1476	1092	8986
1332	1129	8991
1390	1337	8995
1561	1249	9000
1623	1102	9005
1615	1061	9010
1600	1082	9014
1624	1142	9019
1651	1502	9024
1705	1353	9028
1713	1302	9033
1674	1221	9037
1629	1172	9042
1585	1274	9047
1572	1391	9052
1495	1433	9057
1359	1381	9061
1331	1258	9066
1454	1257	9070
1540	1257	9075
1568	1358	9080
1554	1266	9084
1516	1236	9090
1532	1237	9094
1546	1262	9099
1540	1293	9103
1530	1325	9108
1512	1417	9113
1516	1446	9117
1551	1425	9122
1558	1429	9126
1515	1394	9132
1533	1381	9136
1546	1367	9141
1488	1493	9146
1393	1504	9150
1342	1448	9155
1365	1364	9159
1398	1305	9164
1408	1296	9169
1403	1442	9174
1382	1422	9179
1372	1343	9183
1390	1329	9188
1399	1342	9192
1470	1365	9197
1607	1425	9202
1623	1405	9206
1527	1402	9211
1381	1417	9216
1247	1506	9221
1236	1627	9226
1334	1497	9230
1400	1423	9235
1427	1391	9239
1429	1411	9244
1392	1489	9248
1378	1396	9253
1415	1381	9259
1461	1424	9263
1474	1500	9268
1461	1434	9272
1480	1384	9277
1521	1359	9281
1447	1417	9286
1435	1668	9291
1521	1440	9295
1589	1329	9300
1574	1291	9305
1558	1294	9310
1544	1322	9315
1526	1391	9319
1502	1453	9324
1489	1426	9328
1488	1391	9333
1479	1381	9337
1429	1397	9342
1344	1538	9348
1371	1503	9352
1469	1411	9357
1517	1381	9361
1495	1391	9366
1438	1532	9371
1430	1549	9375
1487	1433	9380
1506	1404	9384
1539	1394	9390
1545	1404	9394
1534	1388	9399
1521	1381	9404
1517	1393	9408
1495	1490	9413
1484	1711	9417
1448	1623	9422
1409	1475	9426
1382	1525	9432
1553	1499	9437
1653	1500	9441
1616	1608	9446
1558	1489	9450
1455	1395	9455
1413	1358	9460
1471	1356	9464
1575	1377	9469
1614	1465	9474
1618	1637	9479
1624	1491	9483
1599	1430	9488
1564	1425	9493
1495	1527	9497
1423	1652	9502
1441	1487	9506
1592	1440	9511
1734	1632	9516
1732	1627	9521
1693	1424	9526
1633	1369	9530
1509	1440	9535
1416	1474	9539
1438	1421	9544
1502	1447	9549
1527	1512	9553
1497	1502	9559
1457	1514	9563
1407	1621	9568
1437	1649	9572
1484	1620	9577
1493	1550	9582
1475	1518	9586
1457	1555	9591
1456	1690	9595
1472	1929	9601
1467	1827	9606
1437	1656	9610
1365	1567	9615
1356	1551	9619
1319	1607	9624
1296	1727	9628
1344	1655	9633
1399	1616	9638
1427	1609	9643
1417	1619	9648
1348	1637	9652
1271	1720	9657
1255	1885	9661
1308	1841	9666
1389	1751	9671
1457	1707	9675
1442	1707	9680
1428	1764	9684
1465	1962	9690
1505	1993	9695
1447	1817	9699
1407	1741	9704
1380	1714	9708
1330	1722	9713
1247	1747	9717
1240	1755	9722
1346	1763	9728
1441	1762	9732
1475	1766	9737
1476	1784	9741
1469	1807	9746
1452	1818	9750
1440	1829	9755
1493	1859	9760
1585	1846	9764
1555	1863	9769
1340	1916	9774
1234	1886	9779
1290	1825	9784
1429	1794	9788
1511	1753	9793
1509	1725	9797
1471	1726	9802
1404	1732	9806
1382	1737	9811
1403	1748	9817
1424	1767	9821
1455	1785	9826
1490	1785	9830
1463	1893	9835
1443	1987	9839
1489	1871	9844
1540	1765	9849
1542	1649	9853
1504	1604	9859
1481	1600	9863
1411	1699	9868
1362	1900	9873
1421	1880	9877
1570	1699	9882
1600	1581	9886
1540	1538	9891
1520	1550	9895
1590	1635	9901
1639	1718	9906
1622	1749	9910
1640	1627	9915
1665	1608	9919
1688	1666	9924
1702	1899	9928
1685	2047	9933
1701	1848	9938
1729	1580	9943
1652	1631	9948
1596	1691	9952
1695	1478	9957
1790	1446	9962
1785	1759	9966
1755	1887	9971
1762	1568	9975
1716	1398	9980
1581	1368	9985
1513	1311	9990
1563	1270	9995
1589	1477	9999
1540	1768	10004
1514	1588	10008
1574	1329	10013
1598	1397	10018
1529	1555	10022
1490	1471	10028
1570	1518	10033
1599	1590	10037
1548	1630	10042
1492	1394	10046
1548	1285	10051
1539	1430	10056
1425	1510	10060
1330	1399	10065
1359	1428	10071
1505	1498	10075
1516	1656	10080
1436	1677	10084
1422	1302	10089
1455	1207	10094
1435	1360	10098
1466	1585	10103
1516	1324	10108
1457	1293	10113
1325	1305	10118
1390	1249	10123
1507	1281	10127
1539	1464	10132
1590	1644	10136
1517	1647	10141
1390	1501	10146
1288	1241	10150
1298	1290	10156
1307	1580	10161
1385	1486	10165
1486	1273	10170
1521	1137	10174
1434	1151	10179
1386	1237	10184
1418	1256	10188
1469	1298	10193
1472	1418	10199
1448	1216	10203
1451	1376	10208
1383	1504	10212
1294	1349	10217
1311	1231	10222
1343	1300	10226
1296	1380	10231
1332	1296	10236
1427	1157	10241
1402	1257	10246
1353	1392	10251
1352	1423	10255
1357	1219	10260
1370	1226	10264
1527	1151	10269
1636	1182	10274
1557	1257	10278
1454	1142	10284
1382	1320	10289
1379	1294	10293
1476	1190	10298
1570	1176	10302
1558	1203	10307
1484	1103	10312
1354	1380	10316
1304	1323	10321
1442	1137	10327
1554	1169	10331
1485	1364	10336
1464	1215	10340
1503	1158	10345
1481	1384	10350
1448	1177	10354
1460	1155	10359
1534	1206	10364
1614	1325	10369
1668	1353	10374
1729	1269	10379
1750	1276	10383
1622	1440	10388
1574	1445	10392
1709	1355	10397
1785	1312	10402
1761	1312	10406
1717	1418	10412
1675	1401	10417
1634	1374	10421
1602	1361	10426
1592	1388	10430
1572	1395	10435
1557	1435	10440
1538	1433	10444
1460	1406	10449
1456	1364	10455
1511	1455	10459
1581	1425	10464
1565	1319	10468
1527	1327	10473
1503	1311	10478
1431	1367	10482
1335	1439	10487
1322	1381	10492
1388	1352	10497
1432	1342	10502
1446	1357	10507
1482	1441	10511
1538	1541	10516
1505	1519	10520
1441	1488	10525
1407	1412	10530
1396	1418	10534
1343	1565	10540
1129	1750	10545
1090	1523	10549
1266	1384	10554
1431	1324	10558
1482	1330	10563
1497	1429	10568
1491	1400	10572
1479	1358	10577
1486	1346	10583
1478	1354	10587
1447	1386	10592
1401	1597	10596
1358	1588	10601
1358	1404	10606
1382	1363	10610
1360	1413	10615
1356	1383	10620
1364	1407	10625
1341	1558	10630
1336	1630	10635
1463	1388	10639
1593	1282	10644
1608	1252	10648
1487	1284	10653
1407	1445	10658
1398	1411	10662
1461	1337	10668
1451	1324	10673
1425	1416	10677
1420	1486	10682
1369	1396	10686
1360	1392	10691
1457	1413	10696
1530	1442	10700
1477	1553	10705
1307	1557	10711
1159	1513	10715
1163	1538	10720
1309	1362	10724
1570	1372	10729
1705	1437	10734
1641	1462	10738
1449	1569	10743
1343	1467	10748
1421	1378	10753
1529	1357	10758
1511	1381	10763
1380	1479	10767
1333	1510	10772
1402	1540	10776
1426	1598	10781
1489	1485	10786
1560	1559	10790
1532	1932	10796
1478	1667	10801
1470	1495	10805
1561	1582	10810
1681	1452	10814
1717	1351	10819
1588	1378	10824
1400	1493	10828
1395	1428	10833
1540	1411	10839
1657	1413	10843
1670	1421	10848
1596	1456	10852
1539	1567	10857
1562	1580	10862
1616	1517	10866
1658	1551	10871
1671	1769	10876
1619	1757	10881
1544	1935	10886
1522	1862	10891
1546	1569	10895
1557	1455	10900
1570	1431	10904
1562	1446	10909
1499	1475	10914
1342	1514	10918
1231	1562	10924
1264	1592	10929
1304	1621	10933
1347	1650	10938
1447	1682	10942
1579	1735	10947
1625	1780	10952
1582	1741	10956
1501	1800	10961
1401	1920	10967
1355	1854	10971
1383	1860	10976
1411	1868	10980
1413	1726	10985
1408	1665	10990
1415	1649	10994
1398	1661	10999
1346	1685	11004
1251	1711	11009
1219	1732	11014
1322	1733	11019
1414	1736	11023
1437	1757	11028
1421	1801	11032
1415	1823	11037
1408	1754	11042
1407	1771	11046
1414	1819	11052
1434	1764	11057
1477	1743	11061
1488	1745	11066
1433	1712	11070
1332	1688	11075
1296	1679	11080
1287	1681	11084
1322	1700	11089
1387	1738	11095
1412	1745	11099
1436	1716	11104
1481	1705	11108
1495	1717	11113
1450	1836	11118
1340	1849	11122
1296	1733	11127
1350	1654	11132
1477	1610	11137
1578	1598	11142
1603	1606	11147
1548	1636	11151
1472	1637	11156
1409	1642	11160
1414	1730	11165
1449	1794	11170
1511	1709	11174
1528	1759	11180
1411	1854	11185
1360	1759	11189
1457	1643	11194
1551	1791	11198
1502	1873	11203
1507	1709	11208
1645	1503	11212
1681	1452	11217
1588	1500	11223
1479	1496	11227
1425	1436	11232
1441	1405	11236
1527	1465	11241
1535	1575	11246
1486	1550	11250
1498	1538	11255
1526	1457	11260
1573	1703	11265
1634	2047	11270
1670	1958	11275
1717	1516	11279
1712	1427	11284
1730	1529	11288
1805	1556	11293
1848	1411	11298
1814	1386	11302
1740	1568	11308
1651	1707	11313
1624	1856	11317
1666	1517	11322
1578	1304	11326
1403	1549	11331
1369	1544	11336
1485	1387	11340
1501	1717	11345
1510	1679	11351
1567	1297	11355
1575	1282	11360
1545	1549	11364
1530	1226	11369
1583	1113	11374
1564	1286	11378
1494	1717	11383
1448	1480	11388
1438	1200	11393
1416	1164	11398
1398	1271	11403
1455	1610	11407
1543	1516	11412
1584	1269	11416
1485	1295	11421
1408	1256	11426
1437	1141	11430
1557	1145	11436
1644	1376	11441
1622	1541	11445
1468	1548	11450
1241	1667	11454
1194	1335	11459
1330	1388	11464
1438	1589	11468
1476	1289	11473
1425	1081	11479
1309	1180	11483
1299	1262	11488
1386	1144	11492
1469	1207	11497
1527	1522	11502
1510	1404	11506
1313	1234	11511
1044	1234	11516
1069	1219	11521
1478	1398	11526
1764	1246	11531
1653	1200	11535
1502	1149	11540
1422	1118	11544
1440	1243	11549
1515	1161	11554
1429	1192	11558
1244	1236	11564
1241	1257	11569
1333	1429	11573
1458	1517	11578
1470	1252	11582
1406	1233	11587
1287	1361	11592
1190	1371	11596
1222	1126	11601
1334	1203	11607
1413	1244	11611
1502	1095	11616
1488	1119	11620
1372	1267	11625
1362	1291	11630
1468	1241	11634
1568	1463	11639
1582	1516	11644
1576	1267	11649
1568	1228	11654
1557	1360	11659
1635	1266	11663
1650	1361	11668
1577	1472	11672
1503	1297	11677
1449	1324	11682
1381	1516	11686
1311	1397	11692
1121	1357	11697
1101	1508	11701
1409	1498	11706
1681	1363	11710
1764	1323	11715
1791	1378	11720
1834	1379	11724
1799	1305	11729
1728	1334	11735
1686	1323	11739
1663	1299	11744
1642	1320	11748
1646	1383	11753
1636	1545	11758
1599	1372	11762
1561	1321	11767
1528	1320	11772
1391	1360	11777
1240	1461	11782
1287	1531	11787
1572	1555	11791
1681	1446	11796
1653	1417	11800
1563	1522	11805
1498	1479	11810
1476	1384	11814
1467	1343	11820
1452	1348	11825
1442	1368	11829
1432	1397	11834
1426	1427	11838
1404	1461	11843
1400	1467	11848
1392	1459	11852
1371	1480	11857
1370	1580	11863
1419	1496	11867
1424	1442	11872
1375	1444	11876
1343	1606	11881
1415	1697	11886
1496	1489	11890
1475	1348	11895
1442	1313	11900
1422	1445	11905
1418	1464	11910
1408	1295	11915
1396	1241	11919
1397	1245	11924
1290	1278	11928
1155	1341	11933
1162	1399	11938
1394	1372	11942
1583	1364	11948
1666	1406	11953
1582	1541	11957
1427	1480	11962
1319	1461	11966
1381	1520	11971
1488	1500	11976
1539	1513	11980
1537	1408	11985
1529	1318	11991
1515	1276	11995
1495	1282	12000
1433	1313	12005
1340	1359	12009
1346	1409	12014
1461	1433	12018
1439	1440	12023
1409	1459	12028
1462	1579	12033
1541	1643	12038
1605	1641	12043
1607	1517	12047
1517	1493	12052
1420	1723	12056
1337	1633	12061
1359	1441	12066
1430	1363	12070
1366	1387	12076
1275	1370	12081
1395	1408	12085
1554	1421	12090
1604	1433	12094
1551	1447	12099
1476	1545	12104
1411	1668	12108
1392	1567	12113
1358	1475	12119
1357	1594	12123
1362	1595	12128
1401	1713	12132
1543	1700	12137
1798	1468	12142
1921	1454	12146
1880	1486	12151
1691	1361	12156
1551	1345	12161
1477	1377	12166
1477	1432	12171
1534	1426	12175
1597	1442	12180
1616	1460	12184
1521	1496	12189
1417	1574	12194
1436	1745	12198
1544	1662	12204
1603	1550	12209
1600	1542	12213
1583	1743	12218
1630	1980	12222
1651	1711	12227
1632	1560	12232
1629	1523	12236
1594	1535	12241
1523	1564	12247
1442	1594	12251
1366	1642	12256
1322	1685	12260
1357	1694	12265
1421	1698	12270
1332	1708	12274
1226	1726	12279
1235	1759	12284
1377	1779	12289
1480	1768	12294
1537	1773	12299
1604	1839	12303
1578	1832	12308
1466	1772	12312
1394	1737	12317
1426	1724	12322
1482	1738	12326
1429	1774	12332
1270	1804	12337
1263	1782	12341
1362	1748	12346
1461	1719	12350
1487	1708	12355
1477	1708	12360
1444	1729	12364
1375	1752	12369
1346	1756	12375
1379	1738	12379
1437	1738	12384
1485	1758	12388
1513	1811	12393
1430	1789	12398
1387	1726	12402
1400	1696	12407
1394	1681	12412
1366	1687	12417
1385	1731	12422
1445	1717	12427
1381	1709	12431
1343	1682	12436
1433	1679	12440
1529	1695	12445
1501	1727	12450
1483	1659	12454
1567	1633	12460
1684	1617	12465
1713	1621	12469
1618	1629	12474
1457	1662	12478
1376	1747	12483
1448	1741	12488
1523	1641	12492
1542	1604	12497
1475	1590	12503
1503	1640	12507
1518	1781	12512
1478	1763	12516
1482	1742	12521
1499	1725	12526
1487	1705	12530
1543	1762	12535
1609	1818	12540
1667	1791	12545
1685	1572	12550
1655	1478	12555
1544	1497	12559
1469	1436	12564
1538	1337	12568
1652	1319	12573
1718	1340	12578
1676	1421	12582
1644	1517	12588
1661	1547	12593
1701	1663	12597
1762	1970	12602
1806	2047	12606
1809	1723	12611
1806	1561	12616
1792	1557	12620
1778	1389	12625
1761	1462	12631
1752	1638	12635
1725	1343	12640
1650	1282	12645
1469	1611	12649
1431	1808	12654
1566	1551	12658
1666	1417	12663
1547	1880	12668
1368	1769	12673
1418	1329	12678
1532	1130	12683
1660	1340	12687
1684	1834	12692
1611	1473	12696
1444	1111	12701
1396	1107	12706
1510	1340	12710
1651	1494	12716
1654	1222	12721
1593	1146	12725
1381	1235	12730
1261	1200	12734
1403	1421	12739
1547	1562	12744
1531	1273	12748
1585	1383	12753
1589	1648	12759
1455	1485	12763
1353	1154	12768
1442	1108	12773
1647	1424	12777
1684	1348	12782
1579	1234	12786
1356	1463	12791
1294	1377	12796
1293	1151	12801
1321	1133	12806
1469	1279	12811
1584	1163	12815
1519	1087	12820
1400	1252	12824
1405	1111	12829
1419	1156	12834
1492	1586	12838
1561	1563	12844
1585	1284	12849
1562	1219	12853
1512	1168	12858
1521	1226	12862
1632	1344	12867
1679	1230	12872
1592	1313	12876
1383	1305	12881
1358	1234	12887
1445	1149	12891
1453	1200	12896
1442	1429	12900
1509	1388	12905
1559	1346	12910
1707	1278	12914
1782	1326	12919
1657	1521	12924
1499	1339	12929
1528	1212	12934
1632	1265	12939
1661	1705	12943
1578	1394	12948
1490	1150	12952
1452	1134	12957
1528	1268	12962
1433	1262	12966
1358	1208	12972
1432	1243	12977
1532	1274	12981
1569	1423	12986
1568	1639	12990
1590	1403	12995
1638	1352	13000
1688	1325	13004
1720	1379	13009
1741	1549	13015
1761	1500	13019
1808	1413	13024
1832	1356	13028
1823	1360	13033
1783	1440	13038
1700	1592	13042
1474	1700	13047
1412	1488	13052
1697	1397	13057
1876	1389	13062
1868	1465	13067
1837	1511	13071
1769	1448	13076
1685	1381	13080
1658	1353	13085
1651	1366	13090
1640	1414	13094
1642	1462	13100
1671	1458	13105
1606	1477	13109
1440	1501	13114
1429	1563	13118
1669	1557	13123
1850	1516	13128
1791	1522	13132
1665	1638	13137
1505	1652	13143
1414	1498	13147
1439	1460	13152
1518	1432	13156
1564	1448	13161
1599	1546	13166
1580	1633	13170
1565	1492	13175
1576	1455	13180
1573	1451	13185
1486	1469	13190
1427	1509	13195
1388	1551	13199
1463	1530	13204
1546	1491	13208
1596	1471	13213
1605	1492	13218
1592	1630	13222
1570	1565	13228
1535	1480	13233
1528	1453	13237
1539	1457	13242
1516	1659	13246
1474	1609	13251
1462	1496	13256
1518	1422	13260
1603	1395	13265
1541	1394	13271
1492	1418	13275
1545	1445	13280
1544	1389	13284
1443	1377	13289
1392	1333	13294
1466	1338	13298
1557	1440	13303
1577	1495	13308
1499	1429	13313
1478	1408	13318
1546	1549	13323
1621	1563	13327
1636	1391	13332
1527	1306	13336
1275	1339	13341
1221	1397	13346
1358	1346	13350
1516	1322	13356
1643	1326	13361
1679	1354	13365
1621	1453	13370
1573	1450	13374
1567	1445	13379
1587	1464	13384
1585	1579	13388
1558	1508	13393
1514	1498	13399
1501	1404	13403
1494	1338	13408
1440	1583	13413
1365	1434	13417
1322	1351	13422
1409	1331	13426
1542	1342	13431
1642	1373	13436
1624	1413	13441
1585	1453	13446
1604	1510	13451
1654	1503	13455
1708	1603	13460
1748	1650	13464
1862	1589	13469
1868	1607	13474
1762	1475	13478
1597	1433	13484
1530	1434	13489
1518	1409	13493
1506	1405	13498
1562	1449	13502
1582	1488	13507
1541	1500	13512
1500	1517	13516
1454	1482	13521
1383	1526	13527
1287	1613	13531
1208	1582	13536
1242	1597	13541
1353	1514	13545
1439	1460	13550
1448	1467	13554
1454	1621	13559
1437	1837	13564
1434	1617	13569
1412	1478	13574
1410	1445	13579
1450	1440	13583
1429	1437	13588
1306	1472	13592
1128	1653	13597
1107	1626	13602
1208	1534	13606
1334	1486	13612
1366	1480	13617
1291	1511	13621
1272	1551	13626
1335	1574	13630
1417	1592	13635
1495	1603	13640
1535	1629	13644
1410	1695	13649
1260	1798	13655
1205	1715	13659
1250	1625	13664
1293	1593	13668
1276	1619	13673
1200	1706	13678
1158	1710	13682
1209	1614	13687
1302	1590	13692
1365	1584	13697
1417	1600	13702
1406	1641	13707
1381	1706	13711
1370	1690	13716
1359	1638	13720
1353	1623	13725
1356	1638	13730
1342	1649	13734
1338	1659	13740
1371	1653	13745
1397	1643	13749
1378	1651	13754
1314	1665	13758
1260	1675	13763
1255	1682	13768
1292	1718	13772
1388	1858	13777
1412	1807	13783
1374	1689	13787
1352	1614	13792
1387	1597	13796
1406	1719	13801
1407	1982	13806
1448	1881	13810
1456	1719	13815
1427	1621	13820
1408	1625	13825
1362	1537	13830
1390	1489	13835
1426	1483	13839
1454	1577	13844
1482	1607	13848
1552	1539	13853
1631	1481	13858
1616	1470	13862
1542	1531	13868
1544	1610	13873
1589	1783	13877
1644	1750	13882
1727	1588	13886
1782	1472	13891
1824	1463	13896
1814	1492	13900
1791	1513	13905
1681	1513	13911
1578	1561	13915
1553	1613	13920
1569	1644	13925
1639	1851	13929
1663	1852	13934
1604	1672	13938
1481	1695	13943
1426	1842	13948
1441	1809	13953
1516	1718	13958
1571	1595	13963
1507	1645	13967
1433	1660	13972
1382	1449	13976
1361	1370	13981
1420	1572	13986
1522	1868	13990
1577	1451	13996
1494	1391	14001
1300	1681	14005
1294	1492	14010
1406	1548	14014
1510	1315	14019
1452	1249	14024
1400	1180	14028
1447	1320	14033
1468	1758	14039
1448	1641	14043
1430	1408	14048
1333	1607	14052
1275	1639	14057
1355	1352	14062
1448	1445	14066
1335	1488	14071
1285	1507	14076
1403	1365	14081
1542	1268	14086
1546	1642	14091
1558	1825	14095
1612	1509	14100
1575	1412	14104
1413	1649	14109
1292	1428	14114
1330	1155	14118
1497	1468	14124
1503	1364	14129
1290	1078	14133
1186	1042	14138
1398	1366	14142
1526	1336	14147
1521	1210	14152
1463	1140	14156
1417	1067	14161
1425	1128	14167
1579	1382	14171
1591	1604	14176
1437	1298	14180
1304	1168	14185
1284	1485	14190
1342	1617	14194
1359	1399	14199
1288	1274	14204
1335	1429	14209
1430	1307	14214
1469	1179	14219
1470	1215	14223
1461	1399	14228
1446	1212	14232
1357	1228	14237
1308	1503	14242
1324	1207	14246
1328	1154	14252
1385	1409	14257
1418	1260	14261
1355	1205	14266
1323	1260	14270
1446	1293	14275
1613	1196	14280
1627	1144	14284
1472	1180	14289
1417	1266	14295
1598	1522	14299
1776	1343	14304
1769	1308	14308
1646	1250	14313
1684	1371	14318
1762	1448	14322
1725	1292	14327
1597	1274	14332
1464	1429	14337
1400	1526	14342
1465	1614	14347
1554	1425	14351
1575	1325	14356
1545	1444	14360
1457	1439	14365
1530	1409	14370
1591	1389	14374
1592	1367	14380
1539	1619	14385
1481	1674	14389
1367	1441	14394
1171	1353	14398
983	1446	14403
1058	1483	14408
1281	1529	14412
1449	1505	14417
1564	1374	14423
1620	1339	14427
1566	1470	14432
1489	1371	14436
1456	1377	14441
1447	1473	14446
1486	1388	14450
1516	1393	14455
1537	1388	14460
1520	1498	14465
1508	1584	14470
1423	1500	14474
1394	1452	14479
1399	1478	14484
1232	1530	14488
1235	1783	14493
1366	1623	14498
1463	1458	14502
1503	1386	14508
1489	1377	14512
1488	1422	14517
1484	1685	14522
1500	1570	14526
1493	1421	14531
1472	1378	14536
1437	1384	14540
1420	1412	14545
1433	1451	14551
1472	1493	14555
1423	1518	14560
1324	1544	14564
1271	1570	14569
1285	1578	14574
1342	1679	14578
1391	1589	14583
1398	1482	14588
1386	1455	14593
1381	1469	14598
1370	1524	14602
1275	1724	14607
1232	1714	14612
1334	1431	14616
1453	1358	14621
1510	1352	14626
1538	1380	14630
1418	1441	14636
1203	1583	14640
1200	1476	14645
1351	1419	14650
1490	1399	14654
1573	1394	14659
1604	1395	14664
1590	1446	14668
1569	1472	14673
1589	1453	14679
1592	1459	14683
1535	1467	14688
1376	1623	14692
1284	1597	14697
1378	1461	14702
1570	1456	14706
1651	1399	14711
1497	1381	14716
1290	1539	14721
1362	1505	14726
1575	1400	14730
1731	1377	14735
1818	1371	14740
1818	1390	14744
1793	1477	14749
1720	1488	14754
1692	1466	14758
1698	1452	14764
1701	1491	14768
1664	1512	14773
1528	1623	14778
1324	1611	14782
1281	1562	14787
1416	1415	14792
1519	1359	14796
1546	1427	14801
1524	1593	14807
1508	1422	14811
1518	1370	14816
1499	1361	14820
1450	1382	14825
1296	1483	14830
1119	1710	14834
1154	1571	14839
1409	1425	14844
1590	1399	14849
1659	1418	14854
1682	1621	14858
1724	1738	14863
1711	1612	14868
1609	1437	14872
1449	1396	14877
1269	1437	14882
1087	1663	14886
1100	1515	14892
1271	1401	14896
1371	1368	14901
1397	1381	14906
1439	1415	14910
1482	1454	14915
1473	1548	14920
1500	1607	14924
1549	1542	14929
1614	1527	14935
1670	1632	14939
1623	1806	14944
1419	1657	14948
1314	1530	14953
1332	1457	14958
1369	1410	14962
1311	1421	14967
1240	1445	14972
1208	1498	14977
1250	1533	14982
1293	1520	14986
1283	1538	14991
1258	1575	14996
1344	1629	15000
1469	1773	15005
1512	1659	15010
1479	1601	15014
1459	1601	15020
1496	1653	15025
1519	1652	15029
1528	1665	15034
1514	1594	15038
1553	1633	15043
1535	1653	15048
1483	1603	15052
1406	1578	15057
1329	1574	15063
1153	1668	15067
981	1814	15072
1031	1673	15076
1258	1614	15081
1450	1605	15086
1479	1606	15090
1466	1621	15095
1484	1651	15100
1519	1721	15105
1544	1865	15110
1603	1899	15114
1605	1786	15119
1493	1678	15124
1431	1623	15128
1570	1603	15133
1674	1613	15138
1667	1687	15142
1600	1757	15148
1563	1678	15152
1568	1640	15157
1572	1637	15162
1538	1644	15166
1460	1662	15171
1310	1699	15176
1230	1709	15180
1319	1708	15185
1473	1710	15190
1545	1722	15195
1673	1736	15200
1783	1746	15204
1784	1810	15209
1667	1930	15214
1519	1842	15218
1368	1712	15223
1372	1653	15227
1404	1635	15233
1417	1658	15238
1457	1721	15242
1526	1766	15247
1536	1732	15252
1438	1641	15256
1368	1606	15261
1401	1638	15266
1492	1726	15270
1504	1844	15276
1507	1767	15280
1567	1618	15285
1584	1550	15290
1515	1578	15294
1503	1651	15299
1577	1590	15304
1614	1524	15308
1634	1480	15313
1644	1523	15318
1633	1726	15323
1585	1939	15328
1477	1796	15332
1454	1601	15337
1441	1544	15342
1461	1818	15346
1389	2047	15351
1287	2047	15356
1261	1756	15361
1378	1528	15366
1560	1416	15370
1614	1389	15375
1549	1526	15380
1454	1767	15384
1381	1817	15389
1428	1616	15394
1512	1464	15398
1503	1702	15404
1403	1782	15408
1374	1515	15413
1403	1506	15418
1438	1560	15422
1400	1440	15427
1358	1369	15432
1381	1369	15436
1361	1468	15441
1277	1871	15446
1239	1894	15451
1320	1563	15456
1426	1356	15460
1482	1277	15465
1520	1298	15470
1573	1549	15474
1675	1903	15479
1686	1799	15483
1497	1562	15489
1274	1622	15494
1292	1376	15498
1516	1303	15503
1636	1482	15508
1501	1604	15512
1360	1359	15517
1400	1446	15522
1540	1505	15526
1610	1660	15532
1557	1518	15536
1476	1309	15541
1447	1251	15546
1463	1323	15550
1562	1389	15555
1648	1160	15560
1644	1388	15564
1590	1547	15569
1549	1133	15574
1595	1239	15579
1699	1245	15584
1747	1270	15588
1717	1097	15593
1635	999	15598
1534	1244	15602
1473	1454	15607
1576	1298	15611
1642	1317	15617
1556	1134	15622
1484	1118	15626
1500	1429	15631
1476	1517	15636
1429	1176	15640
1418	1326	15645
1435	1288	15649
1428	1269	15654
1381	1445	15660
1323	1283	15664
1249	1181	15669
1343	1395	15674
1502	1078	15678
1586	986	15683
1511	1122	15687
1482	1324	15692
1500	1241	15697
1542	1248	15702
1565	1532	15707
1480	1352	15712
1323	1224	15716
1293	1186	15721
1422	1249	15725
1607	1388	15730
1651	1480	15735
1627	1308	15739
1543	1248	15745
1431	1704	15750
1480	1466	15754
1538	1381	15759
1553	1576	15764
1539	1226	15768
1494	1297	15773
1409	1588	15777
1374	1483	15782
1436	1152	15788
1486	1178	15792
1233	1250	15797
1120	1367	15802
1288	1369	15806
1467	1171	15811
1413	1344	15815
1367	1351	15820
1428	1231	15825
1516	1441	15830
1577	1479	15835
1622	1400	15840
1642	1539	15844
1550	1450	15849
1482	1541	15853
1501	1344	15858
1508	1390	15863
1314	1592	15867
1107	1498	15873
1175	1396	15878
1419	1387	15882
1579	1429	15887
1657	1414	15892
1649	1581	15896
1508	1835	15901
1401	1617	15905
1481	1440	15910
1601	1442	15916
1645	1500	15920
1602	1599	15925
1636	1605	15930
1687	1478	15934
1690	1416	15939
1631	1549	15943
1583	1529	15948
1438	1529	15953
1310	1425	15958
1359	1392	15963
1518	1397	15968
1682	1428	15972
1742	1467	15977
1782	1561	15982
1820	1544	15986
1861	1554	15991
1886	1585	15995
1771	1672	16001
1766	1596	16006
1762	1523	16010
1701	1474	16015
1652	1477	16020
1624	1495	16024
1590	1530	16029
1546	1566	16033
1517	1562	16038
1510	1562	16044
1506	1561	16048
1496	1621	16053
1488	1669	16058
1531	1614	16062
1550	1574	16067
1521	1556	16071
1454	1773	16076
1474	1753	16081
1501	1520	16086
1491	1424	16091
1471	1403	16096
1421	1432	16100
1340	1593	16105
1303	1437	16109
1348	1380	16114
1404	1367	16119
1422	1382	16123
1395	1417	16129
1350	1454	16134
1275	1494	16138
1307	1576	16143
1413	1549	16148
1524	1482	16152
1572	1538	16157
1566	1557	16161
1531	1510	16166
1464	1431	16172
1361	1447	16176
1258	1336	16181
1277	1268	16186
1355	1247	16190
1363	1254	16195
1307	1374	16199
1291	1290	16204
1384	1253	16209
1568	1262	16214
1658	1344	16219
1686	1411	16224
1703	1398	16228
1683	1362	16233
1700	1420	16237
1803	1455	16242
1745	1626	16247
1525	1635	16251
1360	1509	16257
1346	1326	16262
1384	1258	16266
1344	1265	16271
1252	1305	16276
1274	1341	16280
1406	1376	16285
1520	1420	16289
1514	1463	16294
1499	1563	16300
1555	1598	16304
1619	1538	16309
1656	1492	16314
1699	1653	16318
1639	1754	16323
1557	1609	16327
1538	1423	16332
1523	1377	16337
1492	1526	16342
1417	1502	16347
1369	1486	16352
1420	1495	16356
1486	1399	16361
1573	1318	16365
1553	1310	16370
1398	1343	16375
1395	1409	16379
1563	1447	16385
1760	1432	16390
1915	1516	16394
1998	1594	16399
1971	1657	16404
1891	1498	16408
1804	1457	16413
1707	1469	16417
1647	1343	16422
1693	1315	16428
1749	1367	16432
1730	1457	16437
1654	1418	16442
1542	1421	16446
1444	1435	16451
1424	1450	16455
1451	1495	16460
1434	1665	16465
1327	1591	16470
1271	1508	16475
1352	1438	16480
1454	1428	16484
1553	1452	16489
1586	1505	16493
1423	1656	16498
1290	1654	16503
1338	1545	16507
1413	1514	16513
1463	1539	16518
1508	1670	16522
1486	1703	16527
1435	1584	16532
1404	1539	16536
1382	1531	16541
1361	1543	16545
1333	1610	16550
1333	1673	16556
1338	1610	16560
1407	1589	16565
1473	1587	16570
1507	1602	16574
1437	1630	16579
1416	1660	16583
1420	1658	16588
1433	1656	16593
1419	1667	16598
1378	1699	16603
1346	1764	16608
1377	1731	16612
1448	1705	16617
1570	1720	16621
1649	1790	16626
1625	1794	16631
1510	1714	16635
1398	1649	16641
1381	1623	16646
1415	1622	16650
1392	1645	16655
1334	1625	16660
1272	1633	16664
1217	1654	16669
1267	1679	16673
1408	1673	16678
1577	1697	16684
1707	1738	16688
1681	1812	16693
1537	1809	16698
1360	1660	16702
1316	1607	16707
1372	1594	16711
1483	1721	16716
1508	1763	16721
1432	1646	16726
1328	1530	16731
1382	1497	16736
1538	1482	16740
1662	1492	16745
1631	1537	16749
1585	1611	16754
1583	1596	16759
1590	1553	16763
1513	1554	16769
1467	1597	16774
1477	1602	16778
1498	1645	16783
1472	1616	16788
1530	1684	16792
1560	1728	16797
1595	1653	16801
1589	1546	16806
1523	1580	16812
1478	1526	16816
1567	1482	16821
1812	1554	16826
1965	1797	16830
1956	1846	16835
1843	1626	16839
1766	1477	16844
1815	1414	16849
1866	1518	16854
1862	1933	16859
1789	2006	16864
1596	1752	16868
1443	1603	16873
1376	1775	16877
1429	1732	16882
1472	1601	16887
1335	1559	16891
1153	1668	16897
1181	1605	16902
1356	1498	16906
1524	1432	16911
1580	1425	16915
1545	1466	16920
1505	1411	16925
1422	1593	16929
1416	1881	16934
1395	1742	16940
1446	1414	16944
1575	1292	16949
1696	1287	16954
1753	1477	16958
1699	1636	16963
1578	1549	16967
1429	1418	16972
1392	1380	16977
1463	1511	16982
1534	1792	16987
1514	1578	16992
1432	1564	16996
1387	1822	17001
1410	1979	17005
1413	1702	17010
1368	1491	17015
1381	1639	17019
1416	1712	17025
1432	1764	17030
1482	1636	17034
1506	1350	17039
1382	1294	17043
1184	1270	17048
1174	1266	17053
1346	1186	17057
1633	1480	17062
1853	1788	17068
1808	1416	17072
1603	1146	17077
1401	1235	17082
1452	1568	17086
1571	1342	17091
1620	1156	17095
1609	1173	17100
1602	1323	17105
1560	1761	17110
1478	1610	17115
1623	1245	17120
1759	1328	17124
1731	1581	17129
1608	1172	17133
1503	1082	17138
1463	1259	17143
1613	1422	17147
1660	1569	17153
1512	1421	17158
1336	1151	17162
1264	1030	17167
1462	1103	17171
1683	1223	17176
1791	1220	17181
1783	1236	17185
1696	1205	17190
1549	1254	17196
1528	1562	17200
1636	1459	17205
1778	1264	17210
1865	1231	17214
1840	1248	17219
1737	1404	17223
1666	1737	17228
1701	1585	17233
1622	1425	17238
1456	1403	17243
1300	1422	17248
1362	1398	17252
1492	1393	17257
1597	1344	17261
1647	1302	17266
1570	1461	17271
1412	1449	17275
1227	1330	17281
1112	1288	17286
1082	1301	17290
1185	1231	17295
1364	1412	17299
1450	1758	17304
1445	1449	17309
1482	1203	17313
1560	1368	17318
1620	1461	17324
1501	1192	17328
1335	1277	17333
1334	1563	17338
1475	1226	17342
1625	1057	17347
1720	1068	17351
1717	1404	17356
1619	1611	17361
1537	1268	17366
1508	1186	17371
1583	1229	17376
1691	1371	17380
1538	1442	17385
1285	1400	17389
1200	1314	17394
1337	1327	17399
1481	1400	17403
1577	1626	17409
1630	1469	17414
1525	1482	17418
1380	1586	17423
1392	1438	17427
1537	1387	17432
1627	1605	17437
1671	1790	17441
1697	1498	17446
1676	1348	17452
1628	1308	17456
1601	1433	17461
1536	1498	17466
1295	1434	17470
1070	1413	17475
1121	1540	17479
1315	1529	17484
1453	1465	17489
1430	1434	17494
1417	1395	17499
1446	1469	17504
1606	1674	17508
1703	1507	17513
1729	1440	17517
1712	1437	17522
1631	1497	17527
1504	1622	17531
1475	1585	17537
1550	1491	17542
1588	1436	17546
1546	1433	17551
1476	1451	17555
1354	1492	17560
1238	1631	17565
1229	1593	17569
1371	1574	17574
1590	1546	17580
1726	1474	17584
1763	1471	17589
1759	1503	17594
1691	1511	17598
1623	1548	17603
1595	1535	17607
1547	1641	17612
1386	1557	17617
1308	1492	17622
1416	1437	17627
1593	1429	17632
1699	1443	17636
1720	1495	17641
1720	1535	17645
1750	1504	17650
1776	1486	17655
1778	1495	17659
1753	1518	17665
1707	1513	17670
1669	1497	17674
1629	1535	17679
1524	1728	17683
1329	1687	17688
1257	1509	17693
1317	1431	17697
1453	1402	17702
1543	1411	17708
1595	1491	17712
1605	1436	17717
1530	1437	17722
1473	1430	17726
1504	1423	17731
1539	1442	17735
1476	1526	17740
1406	1494	17745
1412	1511	17750
1481	1457	17755
1481	1445	17760
1354	1406	17764
1244	1395	17769
1261	1443	17773
1381	1387	17778
1380	1309	17783
1283	1295	17787
1143	1340	17793
1158	1438	17798
1314	1369	17802
1522	1309	17807
1653	1300	17811
1670	1319	17816
1645	1509	17821
1574	1638	17825
1506	1420	17830
1452	1319	17836
1422	1297	17840
1358	1353	17845
1204	1530	17850
1135	1544	17854
1227	1381	17859
1366	1310	17863
1445	1296	17868
1388	1318	17873
1294	1355	17878
1281	1416	17883
1398	1513	17888
1509	1474	17892
1560	1429	17897
1606	1420	17901
1602	1521	17906
1561	1686	17911
1501	1532	17915
1493	1430	17921
1461	1443	17926
1369	1702	17930
1243	1493	17935
1182	1404	17940
1237	1410	17944
1355	1372	17949
1423	1305	17953
1399	1290	17958
1300	1310	17964
1282	1382	17968
1391	1409	17973
1587	1397	17978
1713	1425	17982
1699	1631	17987
1567	1702	17991
1392	1557	17996
1297	1485	18001
1340	1371	18006
1398	1332	18011
1383	1349	18016
1341	1429	18020
1371	1406	18025
1478	1390	18029
1558	1406	18034
1560	1440	18039
1572	1523	18043
1616	1601	18049
1715	1518	18054
1790	1483	18058
1737	1523	18063
1576	1558	18067
1502	1548	18072
1531	1516	18077
1557	1520	18081
1538	1473	18086
1524	1467	18092
1501	1499	18096
1519	1567	18101
1511	1675	18106
1377	1639	18110
1213	1515	18115
1232	1589	18119
1309	1720	18124
1364	1511	18129
1404	1428	18134
1476	1404	18139
1512	1414	18144
1521	1445	18148
1494	1474	18153
1451	1500	18157
1435	1519	18162
1395	1623	18167
1339	1659	18171
1313	1559	18177
1333	1527	18182
1380	1516	18186
1481	1526	18191
1518	1551	18195
1471	1578	18200
1381	1588	18205
1367	1594	18209
1346	1608	18214
1408	1631	18220
1411	1672	18224
1337	1741	18229
1264	1676	18234
1268	1638	18238
1302	1617	18243
1294	1680	18247
1242	1888	18252
1220	1815	18257
1236	1649	18262
1352	1587	18267
1437	1528	18272
1491	1511	18276
1481	1559	18281
1390	1577	18285
1334	1551	18290
1312	1587	18295
1343	1530	18299
1376	1496	18305
1443	1525	18310
1460	1739	18314
1389	1808	18319
1369	1564	18323
1433	1442	18328
1527	1394	18333
1598	1416	18337
1552	1470	18342
1392	1591	18348
1247	1576	18352
1201	1511	18357
1299	1452	18362
1421	1443	18366
1502	1451	18371
1539	1514	18375
1484	1581	18380
1408	1667	18385
1346	1821	18390
1334	1599	18395
1422	1470	18400
1587	1568	18404
1562	1644	18409
1438	1465	18413
1405	1411	18418
1544	1472	18423
1664	1602	18427
1639	1717	18433
1453	1656	18438
1320	1572	18442
1272	1595	18447
1243	1503	18451
1348	1392	18456
1591	1608	18461
1722	1617	18465
1701	1457	18470
1507	1369	18476
1278	1324	18480
1232	1334	18485
1311	1806	18490
1427	2033	18494
1424	1687	18499
1395	1422	18503
1452	1342	18508
1454	1423	18513
1474	1530	18518
1498	1616	18523
1541	1714	18528
1518	1683	18532
1518	1618	18537
1569	1848	18541
1570	1695	18546
1508	1321	18551
1436	1216	18555
1334	1237	18561
1252	1383	18566
1305	1665	18570
1433	1582	18575
1537	1256	18580
1650	1229	18584
1604	1449	18589
1533	1689	18593
1502	1534	18598
1597	1363	18604
1687	1397	18608
1668	1326	18613
1531	1456	18618
1428	1628	18622
1408	1283	18627
1500	1226	18631
1556	1666	18636
1542	1595	18641
1435	1271	18646
1392	1385	18651
1456	1152	18656
1510	1071	18660
1519	1279	18665
1471	1594	18669
1285	1485	18674
1238	1239	18679
1403	1282	18683
1690	1305	18689
1785	1312	18694
1716	1219	18698
1567	1186	18703
1428	1303	18707
1357	1543	18712
1375	1319	18717
1498	1307	18721
1565	1428	18726
1535	1260	18732
1542	1387	18736
1485	1453	18741
1350	1260	18746
1379	1352	18750
1509	1292	18755
1579	1217	18759
1543	1205	18764
1517	1282	18769
1515	1250	18774
1537	1279	18779
1561	1411	18784
1513	1427	18788
1362	1392	18793
1225	1396	18797
1220	1258	18802
1311	1293	18807
1451	1621	18811
1579	1785	18817
1589	1438	18822
1448	1266	18826
1439	1322	18831
1554	1348	18835
1656	1556	18840
1629	1307	18845
1486	1143	18849
1399	1170	18854
1519	1297	18860
1735	1241	18864
1856	1191	18869
1729	1240	18874
1577	1379	18878
1478	1365	18883
1538	1342	18887
1563	1689	18892
1632	1727	18897
1653	1338	18902
1654	1208	18907
1678	1210	18912
1686	1284	18916
1669	1324	18921
1558	1360	18925
1462	1399	18930
1377	1515	18935
1259	1638	18939
1234	1634	18945
1409	1580	18950
1561	1572	18954
1634	1452	18959
1660	1435	18964
1626	1531	18968
1452	1562	18973
1378	1545	18977
1461	1476	18982
1576	1509	18988
1624	1591	18992
1597	1599	18997
1497	1449	19002
1467	1512	19006
1541	1544	19011
1502	1424	19015
1350	1407	19020
1326	1416	19025
1418	1446	19030
1517	1518	19035
1439	1654	19040
1354	1706	19044
1388	1541	19049
1536	1369	19053
1640	1385	19058
1710	1555	19063
1769	1450	19067
1736	1410	19073
1659	1396	19078
1608	1413	19082
1538	1444	19087
1364	1629	19092
1161	1574	19096
1118	1481	19101
1259	1450	19105
1471	1378	19110
1642	1336	19116
1664	1343	19120
1625	1387	19125
1600	1505	19130
1614	1490	19134
1634	1470	19139
1614	1513	19143
1466	1691	19148
1360	1542	19153
1375	1443	19158
1486	1413	19163
1565	1411	19168
1589	1424	19172
1555	1448	19177
1529	1481	19181
1553	1561	19186
1575	1514	19191
1565	1486	19195
1519	1484	19201
1464	1568	19206
1454	1500	19210
1501	1464	19215
1551	1451	19220
1574	1464	19224
1575	1529	19229
1568	1535	19233
1563	1499	19238
1565	1478	19244
1571	1479	19248
1573	1628	19253
1620	1582	19258
1671	1459	19262
1710	1402	19267
1702	1384	19271
1668	1414	19276
1589	1506	19281
1543	1440	19286
1489	1419	19291
1523	1330	19296
1593	1259	19300
1639	1244	19305
1643	1276	19309
1638	1344	19314
1617	1338	19319
1546	1304	19323
1432	1307	19329
1381	1327	19334
1434	1415	19338
1510	1411	19343
1528	1381	19347
1500	1407	19352
1436	1481	19357
1324	1416	19361
1324	1325	19366
1429	1331	19372
1554	1302	19376
1597	1300	19381
1551	1314	19386
1381	1477	19390
1284	1523	19395
1341	1394	19399
1468	1322	19404
1526	1311	19409
1546	1366	19414
1559	1516	19419
1529	1404	19424
1536	1326	19428
1523	1293	19433
1499	1300	19437
1389	1360	19442
1238	1509	19447
1214	1403	19451
1298	1357	19457
1380	1343	19462
1305	1408	19466
1224	1543	19471
1292	1458	19475
1568	1371	19480
1733	1332	19485
1735	1373	19489
1588	1466	19494
1372	1531	19500
1229	1518	19504
1245	1372	19509
1375	1315	19514
1511	1303	19518
1536	1384	19523
1441	1465	19527
1352	1372	19532
1358	1345	19537
1440	1384	19542
1455	1484	19547
1307	1712	19552
1045	1747	19556
927	1515	19561
1033	1326	19565
1338	1264	19570
1628	1291	19575
1742	1327	19579
1693	1302	19585
1607	1309	19590
1538	1334	19594
1485	1383	19599
1395	1497	19603
1266	1662	19608
1207	1528	19613
1261	1462	19617
1332	1433	19622
1355	1433	19628
1299	1498	19632
1251	1575	19637
1295	1574	19641
1419	1514	19646
1529	1461	19651
1615	1445	19655
1704	1471	19660
1670	1604	19665
1571	1684	19670
1531	1526	19675
1595	1474	19680
1671	1466	19684
1706	1480	19689
1668	1493	19693
1592	1500	19698
1550	1531	19703
1600	1554	19707
1693	1576	19713
1725	1610	19718
1668	1638	19722
1587	1626	19727
1510	1646	19731
1460	1651	19736
1445	1612	19741
1453	1605	19745
1364	1716	19750
1244	1753	19756
1256	1621	19760
1362	1564	19765
1501	1539	19769
1527	1603	19774
1396	1833	19779
1303	1716	19783
1388	1577	19788
1514	1542	19793
1492	1453	19798
1383	1478	19803
1325	1615	19808
1382	1503	19812
1478	1448	19817
1480	1450	19821
1388	1404	19826
1339	1415	19831
1378	1508	19835
1426	1572	19841
1520	1463	19846
1575	1449	19850
1614	1447	19855
1583	1443	19859
1440	1510	19864
1282	1660	19869
1239	1580	19873
1321	1490	19878
1457	1447	19884
1533	1458	19888
1537	1538	19893
1488	1598	19897
1488	1550	19902
1486	1502	19907
1462	1494	19911
1369	1524	19916
1292	1636	19921
1335	1735	19926
1366	1670	19931
1319	1511	19936
1321	1473	19940
1364	1554	19945
1435	1559	19949
1467	1552	19954
1462	1604	19959
1486	1553	19963
1446	1530	19969
1372	1513	19974
1318	1368	19978
1352	1328	19983
1411	1592	19987
1428	1821	19992
1433	1545	19997
1529	1355	20001
1628	1285	20006
1608	1356	20012
1441	1561	20016
1278	1584	20021
1243	1380	20026
1377	1445	20030
1391	1523	20035
1273	1352	20039
1219	1392	20044
1370	1439	20049
1593	1346	20054
1585	1303	20059
1534	1317	20064
1540	1466	20068
1622	1824	20073
1671	1920	20077
1679	1866	20082
1539	1623	20087
1391	1584	20091
1390	1592	20097
1589	1279	20102
1695	1211	20106
1688	1386	20111
1639	1497	20115
1577	1300	20120
1554	1254	20125
1581	1452	20129
1653	1743	20134
1621	1586	20140
1530	1319	20144
1470	1296	20149
1535	1540	20154
1668	1801	20158
1713	1580	20163
1601	1512	20167
1468	1616	20172
1541	1406	20177
1548	1422	20182
1461	1662	20187
1371	1484	20192
1370	1193	20196
1320	1128	20201
1252	1336	20205
1304	1407	20210
1396	1298	20215
1431	1251	20219
1453	1552	20225
1390	1559	20230
1279	1318	20234
1205	1305	20239
1297	1472	20243
1489	1762	20248
1582	1469	20253
1532	1247	20257
1482	1264	20262
1439	1375	20268
1442	1636	20272
1445	1768	20277
1446	1640	20282
1433	1559	20286
1303	1664	20291
1183	1437	20295
1166	1327	20300
1221	1513	20305
1320	1478	20310
1424	1320	20315
1410	1355	20320
1386	1413	20324
1409	1402	20329
1341	1457	20333
1193	1652	20338
1101	1588	20343
1079	1411	20347
1101	1293	20353
1193	1223	20358
1246	1196	20362
1186	1268	20367
1256	1405	20371
1424	1313	20376
1518	1356	20381
1469	1601	20385
1223	1513	20390
1286	1608	20396
1410	1693	20400
1343	1482	20405
1162	1426	20410
985	1413	20414
1048	1410	20419
1245	1271	20423
1284	1241	20428
1240	1305	20433
1179	1655	20438
1129	1630	20443
1026	1416	20447
944	1409	20452
1100	1368	20457
1401	1313	20461
1589	1409	20466
1636	1404	20471
1659	1399	20475
1654	1410	20481
1571	1559	20485
1407	1657	20490
1374	1623	20495
1497	1464	20499
1639	1404	20504
1777	1560	20509
1865	1844	20513
1797	1573	20518
1796	1515	20524
1894	1423	20528
1947	1442	20533
1869	1558	20537
1713	1733	20542
1602	1684	20547
1572	1505	20551
1608	1421	20556
1672	1475	20561
1691	1551	20566
1673	1440	20571
1655	1423	20575
1643	1516	20580
1605	1532	20585
1504	1495	20589
1331	1555	20594
1276	1747	20599
1549	1671	20603
1883	1584	20609
1988	1652	20613
1901	1515	20618
1839	1461	20623
1729	1471	20627
1429	1571	20632
1211	1523	20637
1300	1448	20641
1509	1434	20646
1730	1427	20652
1846	1464	20656
1895	1589	20661
1843	1657	20665
1796	1649	20670
1691	1584	20675
1551	1531	20679
1504	1503	20684
1504	1594	20689
1524	1592	20694
1595	1411	20699
1682	1378	20703
1752	1434	20708
1778	1415	20713
1782	1438	20717
1783	1546	20722
1768	1540	20727
1736	1476	20731
1714	1477	20737
1680	1497	20741
1618	1545	20746
1481	1875	20751
1372	1765	20755
1369	1649	20760
1242	1530	20765
990	1529	20769
1013	1482	20774
1326	1459	20779
1637	1441	20784
1789	1554	20789
1861	1644	20793
1886	1526	20798
1803	1463	20803
1710	1460	20807
1664	1482	20812
1660	1510	20817
1637	1539	20822
1525	1575	20827
1447	1631	20831
1476	1653	20836
1558	1648	20841
1577	1692	20845
1540	1837	20850
1532	1652	20855
1533	1591	20859
1562	1662	20865
1644	1566	20869
1733	1518	20874
1786	1536	20879
1813	1533	20883
1828	1547	20888
1832	1540	20893
1828	1550	20897
1819	1559	20902
1802	1570	20907
1757	1584	20912
1713	1599	20917
1667	1619	20921
1615	1669	20926
1598	1737	20931
1607	1726	20935
1610	1633	20940
1614	1569	20944
1614	1559	20950
1587	1606	20955
1519	1625	20959
1460	1579	20964
1463	1532	20969
1518	1504	20973
1559	1502	20978
1574	1515	20983
1568	1548	20987
1560	1618	20993
1545	1595	20997
1529	1578	21002
1516	1578	21007
1501	1586	21011
1494	1599	21016
1491	1622	21021
1475	1728	21025
1463	1700	21030
1460	1639	21035
1438	1656	21040
1378	1623	21045
1312	1573	21049
1317	1542	21054
1361	1504	21059
1411	1505	21063
1437	1522	21068
1453	1546	21072
1453	1551	21078
1446	1563	21083
1440	1586	21087
1431	1597	21092
1429	1596	21097
1430	1599	21101
1428	1605	21106
1430	1608	21111
1432	1614	21115
1433	1620	21121
1434	1626	21125
1435	1635	21130
1435	1645	21135
1434	1648	21139
1434	1650	21144
1432	1659	21149
1434	1673	21153
1436	1659	21158
1437	1655	21163
1438	1656	21168
1439	1645	21173
1443	1634	21177
1445	1624	21182
1450	1623	21187
1453	1624	21191
1457	1627	21196
1461	1636	21200
1463	1636	21206
1470	1637	21211
1479	1644	21215
1481	1662	21220
1482	1687	21225
1492	1654	21229
1503	1626	21234
1513	1614	21239
1521	1603	21243
1525	1600	21249
1528	1600	21253
1532	1604	21258
1531	1608	21263
1529	1601	21267
1529	1607	21272
1536	1619	21277
1550	1644	21281
1573	1646	21286
1607	1612	21291
1639	1605	21296
1669	1592	21301
1699	1556	21305
1716	1541	21310
1726	1535	21315
