1826	1423	4
1761	1704	9
1666	1766	13
1586	1561	18
1504	1450	22
1363	1408	27
1320	1464	31
1442	1542	36
1536	1447	40
1605	1404	45
1617	1426	50
1628	1548	54
1637	1507	59
1601	1459	63
1572	1448	68
1575	1603	72
1522	1643	77
1505	1525	81
1466	1495	87
1456	1418	91
1470	1408	96
1415	1644	100
1432	1637	105
1495	1525	109
1527	1421	114
1543	1381	118
1500	1441	123
1389	1683	128
1346	1652	133
1396	1523	137
1440	1453	142
1416	1443	146
1448	1581	151
1498	1503	156
1486	1451	160
1469	1432	165
1536	1439	169
1540	1633	175
1476	1558	179
1428	1493	184
1413	1502	188
1400	1769	193
1392	1960	197
1381	1820	202
1360	1633	206
1356	1525	211
1328	1482	216
1321	1484	221
1391	1515	225
1488	1480	230
1559	1477	235
1537	1516	239
1431	1766	244
1372	1734	248
1394	1554	253
1453	1475	258
1460	1447	263
1415	1456	267
1384	1651	272
1358	1808	276
1387	1652	281
1449	1554	285
1459	1595	290
1442	1829	294
1388	1975	300
1372	1987	304
1401	1748	309
1422	1601	314
1440	1529	318
1395	1508	323
1307	1516	327
1312	1545	332
1388	1576	336
1445	1557	342
1452	1560	346
1420	1607	351
1326	1791	355
1300	1785	360
1373	1731	364
1423	1812	369
1397	1813	373
1381	1724	378
1428	1637	382
1507	1611	388
1540	1596	393
1530	1603	397
1451	1621	402
1362	1638	406
1396	1651	411
1506	1678	415
1545	1692	420
1514	1687	424
1476	1721	430
1423	1818	434
1425	1800	439
1480	1727	443
1493	1711	448
1473	1856	452
1469	1904	457
1514	1781	461
1582	1742	466
1638	1757	472
1652	1700	476
1605	1684	481
1561	1622	485
1558	1608	490
1579	1610	494
1611	1612	499
1625	1616	503
1600	1623	508
1551	1633	513
1507	1651	518
1501	1657	522
1516	1663	527
1521	1675	531
1480	1694	536
1432	1750	540
1415	1811	545
1433	1783	549
1417	1723	555
1348	1752	560
1325	1752	564
1399	1684	569
1515	1673	573
1546	1661	578
1516	1608	582
1453	1609	587
1394	1600	591
1359	1583	596
1362	1558	601
1398	1551	606
1467	1564	610
1487	1660	615
1433	1746	619
1367	1685	624
1309	1727	628
1352	1677	633
1399	1639	638
1342	1821	643
1289	1853	648
1341	1703	652
1381	1587	657
1366	1610	661
1388	1568	666
1442	1615	670
1475	1591	675
1508	1571	679
1530	1550	685
1512	1736	689
1482	1756	694
1453	1731	698
1452	1686	703
1440	1619	707
1461	1527	712
1472	1569	717
1439	1466	721
1487	1450	727
1615	1624	731
1639	1614	736
1627	1502	740
1608	1454	745
1572	1481	749
1583	1615	754
1615	1886	758
1596	1969	763
1584	1874	768
1600	1712	773
1608	1582	777
1601	1434	782
1485	1486	786
1306	1675	791
1279	1622	796
1383	1512	800
1421	1430	805
1461	1320	809
1584	1449	815
1586	1522	819
1517	1439	824
1449	1411	828
1434	1625	833
1496	1706	837
1534	1437	842
1561	1292	846
1597	1393	851
1652	1530	856
1734	1437	861
1725	1570	865
1657	1683	870
1654	1417	874
1610	1223	879
1506	1258	884
1437	1349	888
1425	1228	893
1428	1222	898
1481	1403	903
1595	1382	907
1717	1255	912
1695	1360	916
1620	1566	921
1580	1457	925
1538	1392	930
1593	1256	934
1668	1190	940
1580	1221	944
1553	1445	949
1657	1359	953
1746	1280	958
1726	1299	963
1684	1218	967
1667	1217	972
1658	1275	976
1608	1206	982
1604	1157	986
1666	1146	991
1690	1139	995
1687	1192	1000
1655	1487	1004
1548	1483	1009
1452	1279	1014
1436	1143	1018
1441	1091	1024
1442	1118	1028
1453	1256	1033
1448	1410	1037
1436	1327	1042
1426	1183	1047
1451	1129	1051
1501	1163	1056
1497	1158	1060
1434	1126	1065
1325	1101	1070
1301	1099	1075
1370	1105	1080
1408	1171	1084
1417	1158	1089
1414	1177	1093
1407	1172	1098
1397	1274	1103
1390	1349	1107
1391	1174	1113
1411	1106	1117
1389	1098	1122
1379	1083	1126
1426	1074	1131
1446	1083	1136
1450	1128	1140
1447	1230	1145
1416	1144	1149
1373	1134	1155
1365	1271	1159
1369	1336	1164
1365	1278	1169
1349	1159	1173
1361	1174	1178
1355	1122	1182
1323	1143	1187
1315	1121	1192
1402	1099	1197
1499	1098	1202
1499	1114	1206
1451	1166	1211
1452	1368	1215
1508	1311	1220
1535	1233	1225
1524	1226	1229
1451	1357	1234
1343	1477	1239
1371	1321	1244
1499	1230	1248
1593	1196	1253
1580	1195	1258
1434	1340	1262
1353	1423	1267
1440	1276	1271
1554	1212	1276
1585	1195	1282
1565	1221	1286
1469	1383	1291
1422	1398	1295
1509	1309	1300
1587	1260	1304
1565	1246	1309
1469	1336	1314
1514	1448	1318
1595	1483	1324
1620	1431	1328
1646	1362	1333
1634	1343	1337
1570	1362	1342
1521	1313	1347
1479	1298	1351
1436	1333	1356
1429	1378	1360
1492	1382	1366
1554	1326	1371
1583	1341	1375
1612	1490	1380
1565	1637	1384
1513	1514	1389
1493	1398	1393
1495	1352	1398
1541	1475	1403
1593	1521	1408
1579	1378	1413
1451	1356	1417
1421	1377	1422
1499	1387	1427
1521	1382	1431
1508	1366	1436
1568	1355	1440
1570	1454	1445
1610	1502	1449
1694	1426	1455
1768	1420	1460
1821	1441	1464
1841	1736	1469
1838	1961	1473
1801	1726	1478
1720	1598	1482
1644	1446	1487
1571	1374	1492
1444	1363	1497
1398	1402	1502
1446	1389	1506
1490	1389	1511
1465	1408	1516
1427	1428	1520
1446	1445	1525
1503	1530	1529
1508	1814	1534
1500	1870	1539
1493	1731	1544
1512	1613	1549
1521	1633	1553
1503	1747	1558
1428	1681	1562
1375	1569	1567
1341	1500	1571
1293	1480	1576
1287	1483	1582
1310	1496	1586
1357	1513	1591
1353	1552	1595
1306	1651	1600
1307	1599	1605
1366	1593	1609
1397	1695	1614
1402	1889	1618
1410	1922	1624
1424	1869	1628
1460	1806	1633
1466	1675	1638
1432	1605	1642
1406	1578	1647
1371	1589	1651
1386	1586	1656
1441	1577	1660
1459	1586	1666
1417	1596	1671
1362	1608	1675
1341	1666	1680
1380	1688	1684
1420	1751	1689
1426	1862	1694
1410	1859	1698
1427	1832	1703
1475	1799	1708
1521	1717	1713
1543	1676	1717
1480	1619	1722
1449	1591	1727
1491	1577	1731
1536	1573	1736
1560	1580	1740
1555	1612	1745
1522	1630	1750
1495	1596	1755
1488	1587	1760
1505	1603	1764
1518	1694	1769
1501	1753	1773
1493	1711	1778
1535	1657	1783
1559	1636	1787
1546	1715	1793
1549	1743	1797
1516	1609	1802
1500	1557	1806
1510	1533	1811
1512	1524	1816
1513	1521	1820
1519	1520	1825
1524	1529	1829
1528	1547	1835
1535	1567	1839
1538	1628	1844
1512	1705	1849
1467	1653	1853
1459	1587	1858
1507	1558	1862
1526	1553	1867
1486	1561	1872
1503	1567	1876
1587	1563	1882
1623	1558	1886
1576	1567	1891
1518	1650	1895
1482	1724	1900
1466	1648	1905
1419	1610	1909
1446	1572	1914
1532	1566	1918
1676	1584	1924
1776	1751	1928
1766	2031	1933
1635	2047	1938
1631	1883	1942
1743	1668	1947
1831	1529	1951
1838	1444	1956
1841	1401	1961
1800	1391	1966
1744	1446	1971
1651	1677	1975
1630	1650	1980
1669	1594	1984
1636	1660	1989
1484	1762	1994
1416	1701	1998
1557	1594	2003
1665	1671	2008
1653	1634	2013
1577	1581	2018
1526	1368	2022
1567	1305	2027
1551	1294	2031
1424	1374	2036
1383	1489	2040
1461	1460	2045
1493	1397	2051
1497	1347	2055
1517	1378	2060
1561	1805	2064
1598	2047	2069
1595	1827	2073
1477	1728	2078
1451	1773	2083
1549	1597	2087
1592	1726	2093
1551	1619	2097
1462	1355	2102
1409	1380	2107
1430	1336	2111
1453	1219	2116
1427	1392	2120
1458	1609	2125
1542	1490	2129
1560	1452	2135
1444	1593	2140
1275	1528	2144
1330	1626	2149
1515	1383	2153
1588	1267	2158
1436	1457	2162
1419	1462	2167
1541	1348	2172
1580	1226	2177
1555	1204	2182
1547	1431	2186
1563	1869	2191
1583	1698	2196
1597	1467	2200
1548	1438	2205
1431	1351	2209
1389	1351	2214
1459	1463	2219
1542	1310	2224
1546	1223	2229
1498	1213	2233
1459	1471	2238
1428	1721	2242
1343	1466	2247
1361	1353	2252
1551	1445	2256
1670	1362	2262
1686	1248	2266
1549	1291	2271
1398	1373	2275
1456	1209	2280
1573	1111	2285
1532	1158	2289
1393	1253	2294
1307	1274	2298
1382	1167	2304
1441	1170	2308
1506	1276	2313
1622	1334	2318
1645	1442	2322
1570	1402	2327
1602	1278	2331
1647	1193	2336
1608	1516	2341
1558	1453	2345
1550	1246	2351
1441	1155	2355
1386	1161	2360
1503	1173	2364
1585	1162	2369
1596	1122	2374
1584	1103	2378
1559	1134	2383
1538	1228	2387
1520	1399	2393
1511	1296	2397
1513	1201	2402
1517	1175	2407
1501	1185	2411
1462	1256	2416
1514	1258	2420
1634	1240	2425
1687	1226	2430
1704	1277	2435
1706	1267	2440
1700	1239	2444
1687	1311	2449
1671	1486	2453
1643	1337	2458
1633	1257	2463
1653	1227	2467
1642	1227	2472
1614	1282	2477
1604	1247	2482
1600	1230	2486
1592	1229	2491
1549	1258	2496
1497	1320	2500
1420	1364	2505
1373	1480	2509
1384	1387	2514
1412	1330	2520
1421	1272	2524
1443	1266	2529
1456	1302	2533
1444	1282	2538
1466	1333	2542
1466	1339	2547
1420	1291	2552
1413	1283	2556
1428	1275	2562
1428	1270	2566
1424	1293	2571
1398	1412	2575
1318	1476	2580
1275	1360	2585
1313	1290	2589
1356	1285	2594
1290	1432	2598
1275	1434	2604
1435	1341	2609
1501	1293	2613
1485	1277	2618
1423	1355	2622
1384	1788	2627
1386	1686	2631
1400	1421	2636
1417	1294	2641
1423	1250	2646
1406	1303	2651
1397	1332	2655
1440	1297	2660
1445	1282	2664
1308	1296	2669
1308	1358	2674
1461	1513	2678
1551	1548	2683
1480	1626	2688
1434	1770	2693
1422	1514	2698
1433	1374	2702
1452	1442	2707
1467	1568	2711
1499	1463	2716
1427	1363	2720
1339	1363	2725
1392	1344	2731
1522	1336	2735
1574	1344	2740
1552	1370	2744
1451	1472	2749
1410	1550	2753
1459	1454	2758
1471	1676	2763
1466	1853	2767
1439	1638	2772
1400	1632	2777
1375	1546	2782
1391	1552	2787
1426	1643	2791
1340	1631	2796
1284	1568	2800
1366	1437	2805
1500	1405	2809
1568	1405	2814
1541	1416	2820
1445	1444	2824
1394	1465	2829
1434	1489	2833
1497	1612	2838
1538	1833	2842
1533	1727	2847
1495	1709	2852
1455	1830	2856
1435	1863	2862
1407	1670	2866
1337	1573	2871
1302	1535	2876
1356	1550	2880
1454	1613	2885
1534	1643	2889
1488	1581	2894
1455	1555	2898
1412	1553	2904
1394	1567	2909
1455	1583	2913
1523	1598	2918
1564	1624	2922
1577	1721	2927
1573	1957	2931
1564	1963	2936
1579	1747	2941
1583	1747	2946
1531	1900	2951
1478	1827	2955
1474	1675	2960
1500	1608	2965
1518	1578	2969
1535	1577	2974
1491	1585	2978
1429	1589	2983
1414	1596	2988
1447	1599	2993
1457	1611	2998
1439	1633	3002
1366	1677	3007
1304	1754	3011
1321	1794	3016
1364	1788	3020
1391	1830	3025
1385	1886	3031
1392	1743	3035
1430	1675	3040
1451	1621	3044
1429	1577	3049
1368	1567	3054
1327	1565	3058
1321	1568	3063
1349	1568	3067
1390	1576	3073
1400	1594	3077
1385	1603	3082
1356	1606	3087
1346	1653	3091
1339	1743	3096
1306	1750	3100
1312	1685	3105
1408	1612	3109
1515	1634	3115
1553	1803	3120
1548	1886	3124
1420	1782	3129
1328	1667	3133
1294	1581	3138
1270	1539	3143
1294	1554	3147
1322	1531	3152
1390	1588	3156
1453	1804	3162
1514	1836	3166
1572	1622	3171
1614	1507	3176
1608	1601	3180
1553	2047	3185
1540	2000	3189
1573	1695	3194
1579	1674	3198
1505	1731	3204
1451	1516	3209
1535	1430	3213
1560	1386	3218
1555	1359	3222
1517	1352	3227
1498	1515	3232
1541	1420	3236
1570	1361	3241
1493	1350	3246
1355	1391	3251
1393	1717	3255
1470	1904	3260
1489	1710	3265
1453	1580	3269
1504	1371	3274
1622	1279	3278
1644	1417	3283
1598	1661	3288
1533	1459	3293
1529	1319	3298
1516	1380	3302
1467	1743	3307
1558	1493	3311
1595	1451	3316
1577	1636	3321
1567	1577	3325
1664	1429	3331
1714	1261	3335
1633	1212	3340
1565	1493	3344
1551	1762	3349
1651	1406	3354
1667	1323	3358
1598	1425	3363
1479	1662	3367
1389	1568	3373
1453	1418	3377
1569	1242	3382
1657	1199	3387
1654	1250	3391
1604	1437	3396
1620	1688	3400
1673	1473	3405
1688	1300	3410
1622	1293	3415
1567	1402	3420
1643	1637	3424
1699	1502	3429
1686	1395	3433
1622	1506	3438
1499	1227	3443
1441	1243	3447
1524	1363	3452
1585	1195	3457
1508	1250	3462
1378	1421	3467
1439	1354	3471
1537	1300	3476
1518	1280	3480
1396	1399	3485
1355	1448	3489
1417	1250	3494
1453	1311	3500
1421	1417	3504
1312	1382	3509
1186	1216	3513
1243	1229	3518
1376	1375	3522
1446	1255	3527
1431	1097	3532
1360	1163	3536
1331	1176	3542
1370	1148	3546
1406	1187	3551
1431	1204	3556
1446	1304	3560
1474	1217	3565
1490	1182	3569
1459	1180	3574
1420	1205	3578
1383	1292	3584
1361	1256	3589
1378	1222	3593
1408	1211	3598
1416	1323	3602
1375	1376	3607
1308	1356	3611
1292	1252	3616
1353	1217	3621
1440	1205	3625
1476	1223	3631
1495	1311	3635
1510	1317	3640
1514	1270	3645
1504	1272	3649
1483	1233	3654
1471	1233	3658
1483	1277	3663
1511	1270	3667
1520	1376	3673
1504	1450	3678
1469	1439	3682
1418	1391	3687
1435	1313	3691
1504	1277	3696
1522	1262	3701
1507	1311	3705
1425	1358	3710
1365	1296	3715
1437	1236	3720
1520	1211	3724
1544	1208	3729
1542	1259	3734
1568	1309	3738
1571	1279	3743
1551	1308	3747
1543	1374	3752
1562	1329	3757
1508	1328	3762
1360	1343	3767
1246	1354	3771
1360	1373	3776
1524	1314	3780
1612	1292	3785
1610	1307	3790
1560	1542	3794
1546	1418	3800
1586	1350	3804
1598	1322	3809
1574	1442	3813
1537	1539	3818
1510	1497	3823
1577	1366	3827
1694	1314	3832
1707	1300	3836
1667	1334	3842
1649	1387	3846
1602	1379	3851
1566	1401	3856
1621	1414	3860
1609	1397	3865
1586	1397	3869
1705	1461	3874
1832	1495	3879
1868	1537	3884
1825	1639	3889
1749	1605	3893
1692	1466	3898
1618	1424	3902
1528	1432	3907
1461	1392	3912
1464	1370	3916
1563	1373	3921
1679	1396	3926
1711	1434	3931
1648	1451	3935
1651	1443	3940
1642	1446	3945
1628	1472	3949
1634	1717	3954
1617	1656	3958
1593	1542	3963
1542	1465	3969
1492	1594	3973
1426	2042	3978
1397	1924	3982
1406	1607	3987
1399	1462	3991
1385	1431	3996
1399	1436	4001
1409	1450	4005
1433	1468	4011
1491	1497	4015
1513	1521	4020
1486	1548	4024
1449	1575	4029
1417	1617	4034
1404	1641	4038
1431	1658	4043
1449	1736	4047
1426	2004	4052
1359	1904	4058
1333	1830	4062
1346	1790	4067
1349	1877	4071
1359	1992	4076
1361	1758	4080
1336	1623	4085
1289	1564	4090
1246	1554	4094
1283	1551	4100
1390	1560	4104
1502	1574	4109
1547	1589	4113
1530	1604	4118
1475	1620	4123
1385	1665	4127
1303	1819	4132
1309	1861	4136
1392	1777	4142
1448	1756	4147
1458	1750	4151
1440	1771	4156
1411	1700	4160
1380	1705	4165
1354	1717	4169
1331	1681	4174
1343	1631	4179
1382	1616	4184
1407	1620	4189
1419	1628	4193
1438	1640	4198
1439	1652	4202
1417	1663	4207
1425	1665	4212
1462	1668	4216
1461	1667	4221
1433	1696	4226
1422	1819	4231
1428	1902	4236
1403	1924	4240
1291	1955	4245
1229	1812	4249
1294	1681	4254
1425	1629	4258
1507	1623	4263
1503	1641	4269
1499	1632	4273
1483	1620	4278
1446	1624	4282
1397	1725	4287
1362	1918	4291
1377	1881	4296
1397	1781	4301
1460	1722	4305
1470	1819	4311
1454	2047	4315
1522	2041	4320
1568	1852	4325
1506	1757	4329
1409	1567	4334
1404	1481	4338
1503	1429	4343
1561	1397	4347
1567	1524	4353
1554	1753	4358
1599	2047	4362
1639	1923	4367
1670	1597	4371
1681	1472	4376
1583	1702	4380
1584	1609	4385
1645	1402	4390
1683	1315	4395
1541	1517	4400
1423	1622	4404
1463	1484	4409
1551	1485	4414
1434	1499	4418
1319	1443	4423
1415	1677	4427
1561	1860	4432
1627	1607	4436
1570	1482	4442
1494	1397	4447
1463	1357	4451
1485	1484	4456
1545	1517	4460
1435	1579	4465
1351	1449	4470
1410	1287	4474
1472	1377	4480
1461	1877	4484
1479	1657	4489
1578	1328	4493
1491	1189	4498
1336	1391	4503
1354	1535	4507
1527	1396	4512
1696	1590	4516
1653	1584	4521
1465	1450	4526
1368	1620	4531
1445	1470	4536
1442	1235	4540
1282	1375	4545
1236	1528	4549
1376	1314	4554
1412	1181	4559
1423	1293	4563
1498	1356	4569
1504	1301	4573
1446	1576	4578
1459	1500	4582
1504	1363	4587
1469	1417	4592
1342	1297	4596
1209	1332	4601
1267	1232	4605
1402	1237	4611
1377	1375	4615
1212	1373	4620
1242	1276	4625
1415	1398	4629
1500	1197	4634
1445	1161	4638
1403	1279	4643
1498	1359	4648
1546	1296	4653
1435	1194	4658
1336	1156	4662
1353	1214	4667
1370	1307	4671
1392	1259	4676
1438	1269	4681
1470	1151	4685
1477	1171	4690
1464	1198	4695
1445	1274	4700
1448	1235	4704
1484	1193	4709
1504	1174	4714
1487	1199	4718
1491	1337	4723
1532	1278	4727
1547	1240	4732
1516	1165	4738
1466	1149	4742
1437	1160	4747
1428	1167	4751
1429	1171	4756
1431	1209	4760
1434	1313	4765
1433	1310	4770
1422	1263	4774
1414	1239	4780
1409	1342	4784
1402	1537	4789
1413	1508	4794
1439	1364	4798
1469	1281	4803
1507	1262	4807
1579	1325	4812
1650	1414	4816
1678	1312	4822
1668	1277	4827
1665	1264	4831
1656	1263	4836
1613	1285	4840
1493	1341	4845
1429	1302	4849
1495	1265	4854
1579	1243	4859
1605	1280	4864
1599	1515	4869
1604	1466	4873
1618	1325	4878
1614	1223	4883
1641	1218	4887
1654	1201	4892
1602	1201	4896
1452	1207	4901
1381	1221	4905
1420	1219	4911
1487	1225	4916
1510	1238	4920
1508	1252	4925
1466	1302	4929
1386	1327	4934
1372	1326	4938
1469	1352	4943
1506	1568	4948
1435	1571	4953
1347	1502	4958
1426	1441	4962
1575	1360	4967
1636	1324	4972
1639	1412	4976
1584	1394	4981
1501	1322	4985
1396	1283	4990
1351	1279	4995
1401	1372	5000
1462	1391	5005
1461	1359	5009
1426	1341	5014
1457	1455	5018
1557	1552	5023
1615	1464	5027
1535	1473	5032
1400	1445	5038
1299	1462	5042
1295	1480	5047
1404	1377	5051
1516	1365	5056
1567	1374	5061
1560	1345	5065
1558	1334	5070
1526	1347	5074
1486	1391	5080
1477	1605	5084
1455	1735	5089
1453	1624	5094
1441	1485	5098
1404	1444	5103
1470	1557	5107
1537	1571	5112
1516	1563	5116
1478	1577	5122
1463	1485	5127
1480	1437	5131
1480	1437	5136
1454	1480	5140
1403	1508	5145
1398	1573	5150
1419	1643	5154
1443	1614	5159
1423	1691	5164
1393	1884	5169
1403	1778	5173
1428	1673	5178
1461	1770	5183
1457	1794	5187
1457	1674	5192
1500	1605	5196
1463	1660	5201
1409	1640	5207
1402	1611	5211
1444	1592	5216
1467	1590	5220
1438	1606	5225
1367	1652	5229
1344	1731	5234
1389	1705	5239
1449	1696	5243
1480	1750	5249
1488	1876	5253
1497	1940	5258
1523	1869	5262
1562	1713	5267
1614	1645	5272
1677	1655	5276
1746	1829	5281
1701	1853	5285
1632	1706	5291
1607	1633	5296
1566	1611	5300
1549	1610	5305
1544	1616	5309
1519	1696	5314
1485	1764	5318
1450	1692	5323
1453	1665	5328
1462	1656	5332
1456	1671	5338
1410	1744	5342
1372	1782	5347
1411	1736	5351
1496	1702	5356
1548	1691	5361
1588	1693	5365
1568	1704	5370
1512	1717	5374
1450	1711	5380
1437	1693	5385
1447	1688	5389
1452	1694	5394
1399	1720	5398
1261	1782	5403
1168	1788	5407
1207	1818	5412
1313	1799	5417
1439	1822	5422
1556	1956	5427
1577	1954	5431
1530	1796	5436
1416	1725	5440
1378	1770	5445
1449	1821	5450
1539	1825	5454
1596	1738	5459
1527	1603	5464
1398	1542	5469
1400	1537	5474
1515	1659	5478
1602	2019	5483
1541	1952	5487
1378	1681	5492
1347	1532	5496
1424	1468	5501
1527	1612	5507
1478	1909	5511
1398	1762	5516
1377	1562	5520
1466	1651	5525
1505	1723	5529
1573	1538	5534
1563	1350	5539
1397	1315	5543
1389	1619	5549
1495	1958	5553
1565	1652	5558
1514	1388	5563
1470	1308	5567
1504	1562	5572
1586	1630	5576
1633	1489	5581
1563	1467	5585
1460	1535	5591
1482	1395	5596
1630	1322	5600
1650	1404	5605
1600	1747	5609
1613	1632	5614
1628	1393	5618
1460	1675	5623
1366	1704	5628
1503	1467	5633
1615	1577	5638
1524	1691	5642
1516	1688	5647
1649	1308	5652
1721	1312	5656
1702	1568	5661
1627	1512	5665
1593	1383	5670
1596	1320	5675
1571	1338	5680
1476	1267	5685
1429	1276	5689
1498	1526	5694
1627	1412	5698
1671	1256	5703
1620	1314	5707
1543	1221	5712
1522	1314	5718
1544	1315	5722
1518	1323	5727
1555	1726	5731
1656	1434	5736
1721	1276	5741
1729	1209	5745
1669	1273	5750
1618	1272	5754
1628	1446	5760
1669	1415	5764
1578	1214	5769
1458	1375	5774
1450	1615	5778
1493	1263	5783
1465	1233	5787
1465	1352	5792
1501	1297	5796
1494	1147	5801
1488	1133	5807
1518	1313	5811
1518	1384	5816
1485	1352	5820
1435	1299	5825
1358	1191	5830
1249	1218	5834
1268	1153	5839
1410	1153	5843
1499	1232	5849
1506	1314	5853
1491	1245	5858
1493	1218	5863
1478	1344	5867
1458	1259	5872
1455	1299	5876
1476	1368	5881
1447	1394	5885
1426	1294	5891
1421	1231	5896
1398	1203	5900
1389	1232	5905
1417	1248	5909
1452	1275	5914
1450	1243	5919
1431	1252	5923
1415	1281	5928
1405	1316	5933
1397	1348	5938
1396	1375	5942
1397	1361	5947
1397	1371	5952
1389	1520	5956
1383	1520	5961
1409	1487	5965
1451	1373	5970
1467	1340	5975
1491	1288	5980
1530	1281	5985
1551	1297	5989
1521	1385	5994
1477	1360	5998
1448	1329	6003
1435	1267	6008
1434	1251	6012
1436	1257	6018
1426	1267	6022
1376	1316	6027
1333	1295	6031
1354	1355	6036
1380	1582	6041
1390	1646	6045
1419	1562	6050
1463	1350	6054
1465	1272	6060
1483	1266	6065
1526	1221	6069
1541	1230	6074
1559	1230	6078
1561	1237	6083
1533	1246	6087
1511	1247	6092
1427	1271	6097
1332	1339	6102
1261	1313	6107
1341	1324	6111
1498	1331	6116
1604	1365	6120
1601	1569	6125
1501	1520	6130
1460	1479	6134
1564	1496	6139
1658	1339	6144
1647	1273	6149
1608	1297	6154
1540	1331	6158
1499	1311	6163
1508	1285	6167
1506	1296	6172
1482	1351	6176
1522	1410	6181
1610	1372	6187
1697	1357	6191
1763	1566	6196
1762	1689	6200
1759	1515	6205
1782	1438	6209
1788	1426	6214
1790	1597	6219
1803	1770	6223
1705	1477	6228
1524	1365	6233
1481	1324	6238
1560	1323	6243
1629	1349	6247
1533	1374	6252
1343	1404	6256
1298	1432	6261
1382	1450	6265
1539	1457	6270
1590	1516	6276
1589	1765	6280
1606	1758	6285
1646	1582	6289
1626	1628	6294
1619	1755	6299
1642	1858	6303
1646	1797	6308
1585	1502	6312
1449	1391	6318
1277	1417	6322
1187	1384	6327
1271	1384	6332
1334	1415	6336
1347	1451	6341
1363	1487	6345
1445	1502	6350
1465	1515	6354
1410	1539	6360
1366	1693	6365
1416	1847	6369
1507	1733	6374
1524	1650	6378
1494	1972	6383
1486	2047	6388
1474	1743	6392
1427	1590	6397
1381	1492	6402
1329	1467	6407
1229	1478	6411
1079	1510	6416
1067	1523	6421
1199	1538	6425
1388	1564	6430
1526	1585	6434
1578	1600	6439
1554	1619	6444
1500	1717	6449
1448	1927	6454
1391	1891	6458
1375	1781	6463
1412	1655	6467
1487	1660	6472
1593	1855	6477
1578	1958	6481
1474	1720	6487
1423	1633	6491
1434	1580	6496
1434	1563	6500
1357	1576	6505
1251	1596	6510
1240	1605	6514
1351	1612	6519
1450	1619	6523
1492	1630	6529
1457	1648	6534
1395	1770	6538
1377	1890	6543
1463	1743	6547
1552	1662	6552
1571	1623	6556
1567	1618	6561
1558	1676	6566
1553	1716	6571
1547	1689	6576
1543	1653	6580
1531	1644	6585
1508	1645	6589
1479	1657	6594
1399	1665	6599
1393	1665	6603
1481	1665	6608
1523	1665	6612
1525	1664	6618
1538	1665	6623
1563	1670	6627
1557	1686	6632
1569	1678	6636
1585	1673	6641
1588	1664	6645
1584	1665	6650
1549	1710	6656
1546	1781	6660
1596	1725	6665
1624	1695	6669
1632	1715	6674
1654	1796	6678
1712	1756	6683
1622	1709	6688
1513	1668	6692
1438	1672	6697
1427	1646	6702
1503	1619	6707
1647	1610	6712
1670	1759	6716
1628	1839	6721
1616	1743	6725
1598	1581	6730
1495	1523	6734
1426	1680	6739
1498	1982	6745
1580	1841	6749
1591	1611	6754
1480	1594	6758
1369	1615	6763
1439	1449	6767
1571	1447	6772
1498	1634	6777
1341	1924	6781
1311	1856	6787
1435	1538	6791
1605	1405	6796
1620	1490	6801
1588	1493	6805
1592	1390	6810
1536	1512	6814
1488	1838	6819
1523	1751	6823
1565	1380	6829
1531	1254	6834
1485	1222	6838
1454	1316	6843
1444	1728	6847
1469	1724	6852
1510	1411	6856
1499	1264	6861
1455	1387	6866
1437	1933	6871
1523	1732	6876
1596	1394	6880
1514	1346	6885
1463	1542	6890
1552	1703	6894
1566	1444	6899
1413	1188	6903
1327	1211	6908
1407	1567	6913
1503	1544	6918
1538	1346	6923
1481	1559	6927
1293	1427	6932
1235	1309	6936
1338	1176	6941
1470	1316	6946
1541	1734	6950
1485	1336	6956
1504	1112	6960
1533	1094	6965
1526	1391	6969
1474	1502	6974
1452	1273	6979
1467	1205	6983
1559	1202	6988
1571	1530	6992
1456	1728	6998
1434	1336	7002
1433	1164	7007
1462	1321	7012
1529	1524	7016
1544	1240	7021
1523	1116	7025
1450	1188	7030
1347	1476	7035
1404	1537	7040
1519	1416	7045
1536	1347	7049
1470	1124	7054
1327	1188	7058
1228	1333	7063
1305	1301	7068
1434	1136	7072
1533	1175	7077
1598	1146	7081
1585	1427	7087
1586	1651	7091
1596	1293	7096
1591	1297	7101
1535	1319	7105
1473	1336	7110
1528	1233	7114
1635	1341	7119
1652	1424	7124
1635	1198	7129
1567	1162	7134
1421	1090	7138
1340	1111	7143
1380	1231	7147
1345	1264	7152
1338	1177	7157
1431	1230	7161
1525	1275	7166
1541	1486	7171
1516	1466	7176
1501	1236	7181
1505	1184	7185
1492	1309	7190
1468	1524	7194
1444	1305	7199
1433	1267	7203
1445	1302	7208
1449	1380	7214
1436	1526	7218
1414	1468	7223
1378	1333	7227
1389	1314	7232
1422	1322	7236
1453	1340	7241
1461	1364	7246
1450	1394	7250
1443	1412	7256
1438	1412	7260
1432	1418	7265
1426	1563	7270
1462	1599	7274
1563	1544	7279
1580	1420	7283
1520	1385	7288
1430	1352	7292
1362	1392	7298
1397	1551	7303
1470	1362	7307
1506	1296	7312
1494	1275	7316
1482	1282	7321
1479	1315	7325
1478	1373	7330
1487	1384	7335
1489	1370	7340
1494	1359	7345
1501	1362	7349
1495	1469	7354
1450	1536	7359
1426	1428	7363
1474	1374	7368
1519	1342	7372
1491	1381	7377
1410	1517	7382
1395	1422	7387
1482	1326	7392
1584	1292	7396
1652	1287	7401
1711	1336	7405
1677	1391	7410
1589	1322	7414
1553	1283	7419
1536	1277	7425
1496	1453	7429
1403	1659	7434
1372	1339	7438
1411	1227	7443
1486	1193	7448
1501	1208	7452
1479	1342	7457
1489	1356	7461
1466	1343	7467
1482	1284	7471
1573	1248	7476
1596	1254	7481
1551	1323	7485
1569	1348	7490
1655	1347	7494
1670	1316	7499
1655	1336	7504
1639	1503	7508
1629	1522	7514
1620	1450	7518
1596	1477	7523
1561	1441	7527
1587	1354	7532
1623	1343	7537
1639	1394	7541
1689	1421	7546
1774	1425	7550
1853	1381	7556
1864	1394	7560
1747	1677	7565
1598	1969	7570
1574	1632	7574
1611	1428	7579
1595	1456	7583
1548	1538	7588
1545	1529	7593
1589	1352	7598
1593	1310	7603
1543	1322	7607
1461	1346	7612
1452	1375	7616
1493	1418	7621
1499	1471	7626
1485	1559	7630
1515	1806	7635
1546	1632	7640
1585	1487	7645
1590	1560	7649
1538	1903	7654
1426	1927	7659
1390	1658	7663
1444	1497	7668
1465	1425	7672
1450	1432	7677
1361	1462	7683
1269	1497	7687
1234	1567	7692
1298	1565	7696
1358	1564	7701
1403	1577	7705
1382	1605	7710
1322	1657	7715
1349	1831	7719
1431	1888	7725
1479	1776	7729
1482	1702	7734
1469	1725	7739
1488	1847	7743
1563	1950	7748
1602	1907	7752
1551	1773	7757
1445	1724	7761
1315	1715	7767
1195	1723	7772
1200	1730	7776
1300	1720	7781
1379	1712	7785
1416	1717	7790
1382	1736	7794
1376	1777	7799
1415	1832	7804
1502	1871	7809
1590	1970	7814
1603	1952	7818
1577	1953	7823
1553	1817	7828
1544	1740	7832
1556	1697	7837
1550	1634	7841
1525	1610	7846
1479	1605	7851
1347	1616	7856
1243	1634	7861
1239	1651	7865
1305	1665	7870
1381	1671	7874
1445	1675	7879
1445	1684	7883
1366	1722	7888
1313	1847	7894
1375	1829	7898
1411	1737	7903
1454	1695	7907
1501	1929	7912
1561	2047	7917
1586	2047	7921
1555	1810	7926
1546	1606	7930
1546	1661	7936
1529	1721	7940
1556	1521	7945
1618	1446	7950
1556	1476	7954
1544	1426	7959
1634	1411	7963
1656	1444	7968
1660	1625	7972
1708	1945	7977
1674	1995	7983
1642	1675	7987
1660	1453	7992
1693	1456	7996
1752	1475	8001
1788	1422	8006
1814	1528	8010
1787	1600	8015
1672	1741	8019
1624	1869	8025
1694	1552	8029
1758	1359	8034
1573	1802	8039
1413	1884	8043
1465	1440	8048
1607	1327	8052
1707	1514	8057
1659	1371	8062
1545	1171	8067
1446	1234	8072
1451	1487	8076
1512	1404	8081
1531	1511	8085
1503	1652	8090
1496	1604	8095
1463	1356	8099
1465	1142	8104
1459	1288	8109
1529	1477	8114
1608	1383	8118
1631	1235	8123
1494	1320	8128
1305	1664	8132
1321	1365	8137
1445	1305	8141
1499	1457	8146
1399	1403	8152
1242	1420	8156
1244	1530	8161
1377	1313	8165
1398	1289	8170
1155	1445	8174
1052	1491	8179
1174	1462	8184
1316	1577	8188
1352	1346	8194
1319	1206	8198
1207	1147	8203
1108	1355	8207
1206	1197	8212
1381	1175	8217
1401	1148	8221
1265	1209	8226
1155	1312	8230
1182	1305	8236
1188	1296	8241
1196	1589	8245
1252	1666	8250
1332	1269	8254
1361	1272	8259
1285	1466	8263
1146	1340	8268
1167	1371	8273
1360	1187	8278
1416	1132	8283
1405	1264	8287
1363	1391	8292
1333	1136	8296
1322	1117	8301
1304	1339	8306
1297	1301	8310
1171	1403	8315
1128	1319	8320
1242	1135	8325
1371	1123	8330
1430	1211	8334
1451	1232	8339
1456	1432	8343
1457	1337	8348
1456	1306	8352
1465	1201	8357
1471	1204	8363
1478	1269	8367
1488	1272	8372
1491	1288	8376
1555	1379	8381
1630	1517	8386
1629	1452	8390
1560	1400	8395
1496	1405	8399
1476	1449	8404
1488	1426	8409
1513	1437	8414
1551	1476	8419
1586	1468	8423
1618	1444	8428
1648	1496	8432
1671	1447	8437
1679	1361	8441
1682	1334	8446
1660	1334	8452
1703	1359	8456
1753	1378	8461
1758	1404	8465
1712	1525	8470
1671	1480	8475
1635	1427	8479
1621	1340	8484
1616	1298	8488
1600	1277	8494
1582	1268	8498
1551	1278	8503
1518	1315	8508
1505	1310	8512
1514	1299	8517
1524	1306	8521
1502	1403	8526
1482	1443	8530
1464	1390	8536
1426	1360	8541
1507	1300	8545
1623	1365	8550
1656	1503	8554
1601	1507	8559
1465	1514	8564
1295	1310	8568
1162	1261	8573
1228	1234	8578
1383	1234	8583
1532	1281	8587
1617	1305	8592
1632	1288	8597
1642	1385	8601
1643	1591	8606
1647	1511	8610
1625	1471	8615
1501	1466	8620
1378	1502	8625
1385	1447	8630
1550	1427	8634
1684	1541	8639
1602	1431	8643
1437	1485	8648
1315	1491	8653
1248	1431	8657
1298	1377	8663
1360	1598	8667
1408	1535	8672
1481	1325	8676
1610	1297	8681
1644	1313	8686
1586	1353	8690
1596	1639	8695
1668	1655	8699
1702	1424	8705
1724	1354	8709
1697	1356	8714
1600	1413	8719
1550	1637	8723
1535	1815	8728
1507	1615	8732
1393	1425	8737
1320	1393	8742
1414	1480	8747
1439	1552	8752
1405	1528	8756
1460	1502	8761
1540	1518	8765
1543	1673	8770
1519	1848	8775
1531	1763	8779
1571	1597	8784
1590	1585	8788
1591	1783	8794
1592	2000	8798
1569	1811	8803
1530	1620	8808
1496	1608	8812
1452	1588	8817
1449	1565	8821
1481	1575	8826
1519	1609	8832
1475	1597	8836
1431	1613	8841
1434	1626	8845
1488	1636	8850
1558	1658	8854
1614	1725	8859
1640	1796	8864
1657	1814	8868
1665	1942	8873
1670	2047	8878
1696	1853	8883
1734	1749	8887
1715	1828	8892
1635	1805	8897
1617	1638	8901
1655	1580	8906
1641	1554	8910
1621	1554	8915
1632	1558	8921
1648	1562	8925
1625	1575	8930
1593	1589	8934
1560	1612	8939
1526	1638	8943
1497	1645	8948
1446	1654	8953
1329	1666	8957
1178	1693	8963
1164	1796	8967
1333	1914	8972
1528	1781	8977
1652	1654	8981
1601	1613	8986
1507	1594	8990
1480	1580	8995
1510	1579	8999
1500	1597	9005
1420	1690	9010
1349	1650	9014
1274	1619	9019
1265	1608	9023
1381	1574	9028
1611	1621	9032
1729	1864	9037
1549	1970	9042
1377	1761	9047
1407	1597	9052
1526	1520	9056
1596	1616	9061
1525	1892	9066
1384	1768	9070
1346	1560	9075
1438	1449	9079
1440	1429	9084
1351	1578	9089
1278	1754	9094
1365	1603	9099
1575	1448	9103
1634	1399	9108
1550	1385	9112
1520	1447	9117
1553	1646	9121
1580	1756	9126
1504	1614	9132
1400	1860	9136
1432	2018	9141
1568	1715	9145
1589	1467	9150
1444	1646	9155
1381	1947	9159
1528	1692	9164
1649	1687	9168
1642	1604	9174
1580	1406	9178
1455	1531	9183
1419	1591	9188
1488	1219	9192
1589	1387	9197
1568	1536	9201
1481	1258	9206
1451	1397	9210
1485	1260	9216
1433	1138	9221
1362	1213	9225
1385	1574	9230
1442	1811	9234
1456	1385	9239
1475	1133	9244
1452	1176	9248
1379	1470	9253
1411	1517	9257
1582	1186	9263
1670	1205	9267
1619	1446	9272
1530	1409	9277
1510	1409	9281
1549	1262	9286
1520	1547	9290
1457	1761	9295
1468	1320	9300
1467	1240	9305
1440	1685	9310
1540	1599	9314
1611	1167	9319
1499	1134	9323
1463	1339	9328
1531	1533	9333
1631	1586	9337
1579	1400	9342
1422	1268	9347
1262	1202	9352
1258	1322	9356
1351	1329	9361
1311	1403	9366
1252	1480	9370
1227	1417	9375
1230	1257	9379
1210	1436	9384
1193	1604	9390
1229	1482	9394
1268	1645	9399
1341	1416	9403
1419	1354	9408
1366	1284	9412
1268	1126	9417
1171	1351	9422
1124	1474	9426
1208	1205	9432
1312	1255	9436
1239	1595	9441
1236	1243	9445
1226	1224	9450
1197	1567	9455
1247	1179	9459
1288	1107	9464
1280	1337	9468
1293	1199	9474
1349	1036	9479
1367	1084	9483
1311	1212	9488
1263	1177	9492
1228	1279	9497
1325	1455	9501
1444	1233	9506
1512	1182	9511
1543	1185	9516
1542	1192	9521
1532	1278	9525
1584	1424	9530
1606	1331	9535
1582	1268	9539
1557	1276	9544
1545	1288	9548
1535	1334	9553
1532	1339	9558
1537	1367	9563
1540	1396	9568
1547	1423	9572
1563	1455	9577
1577	1633	9581
1582	1564	9586
1587	1509	9590
1590	1489	9595
1586	1496	9601
1577	1637	9605
1611	1690	9610
1691	1686	9614
1695	1440	9619
1624	1352	9624
1564	1324	9628
1481	1345	9633
1416	1344	9637
1450	1344	9643
1509	1301	9647
1551	1292	9652
1571	1366	9657
1535	1344	9661
1445	1292	9666
1421	1288	9670
1493	1303	9675
1602	1348	9680
1712	1523	9684
1749	1561	9690
1672	1367	9694
1612	1243	9699
1613	1225	9703
1633	1397	9708
1617	1553	9713
1587	1316	9717
1553	1229	9722
1499	1211	9726
1468	1231	9732
1512	1250	9736
1589	1270	9741
1614	1311	9746
1628	1435	9750
1701	1427	9755
1822	1372	9759
1879	1449	9764
1787	1716	9769
1725	1692	9774
1718	1524	9779
1747	1377	9783
1724	1587	9788
1696	1416	9792
1661	1309	9797
1642	1261	9802
1644	1239	9806
1669	1252	9811
1670	1283	9816
1654	1414	9821
1585	1761	9825
1541	1753	9830
1596	1496	9835
1645	1441	9839
1676	1729	9844
1702	1566	9848
1648	1336	9853
1565	1442	9859
1534	1558	9863
1540	1351	9868
1552	1293	9872
1536	1300	9877
1401	1344	9881
1381	1386	9886
1431	1433	9891
1512	1512	9895
1533	1461	9901
1447	1464	9905
1349	1638	9910
1316	1938	9915
1391	1910	9919
1501	1759	9924
1603	1606	9928
1635	1603	9933
1597	1543	9937
1565	1562	9943
1598	1743	9948
1573	1561	9952
1532	1439	9957
1454	1420	9961
1415	1442	9966
1416	1472	9970
1386	1509	9975
1284	1566	9980
1241	1607	9985
1347	1644	9990
1467	1743	9994
1536	2047	9999
1545	2047	10004
1492	2044	10008
1486	1880	10013
1549	1657	10017
1630	1592	10022
1627	1700	10028
1592	1836	10032
1504	1703	10037
1460	1563	10042
1436	1525	10046
1417	1535	10051
1385	1549	10055
1365	1551	10060
1366	1559	10065
1348	1575	10070
1269	1596	10075
1203	1617	10080
1265	1625	10084
1457	1648	10089
1690	1768	10093
1754	1772	10098
1685	1696	10103
1590	1632	10107
1470	1651	10113
1433	1807	10118
1432	1753	10122
1510	1647	10127
1547	1577	10132
1554	1562	10136
1575	1592	10141
1605	1648	10145
1540	1661	10150
1425	1629	10156
1421	1606	10160
1528	1612	10165
1635	1673	10170
1659	1670	10174
1664	1697	10179
1621	1953	10183
1554	2019	10188
1594	1789	10193
1682	1573	10198
1693	1529	10203
1646	1675	10208
1581	1780	10212
1563	1657	10217
1633	1552	10222
1659	1450	10226
1554	1432	10231
1559	1569	10235
1634	1834	10241
1669	1882	10246
1613	1658	10250
1568	1739	10255
1533	1981	10260
1566	1730	10264
1635	1426	10269
1652	1669	10273
1566	1866	10278
1529	1494	10284
1599	1242	10288
1664	1236	10293
1580	1403	10298
1500	1533	10302
1496	1535	10307
1464	1613	10311
1470	1883	10316
1517	1879	10321
1578	1506	10326
1602	1326	10331
1515	1758	10336
1386	1654	10340
1423	1357	10345
1539	1384	10349
1610	1443	10354
1620	1425	10359
1562	1192	10363
1457	1211	10369
1434	1229	10374
1464	1153	10378
1510	1118	10383
1594	1263	10388
1603	1330	10392
1560	1215	10397
1608	1202	10401
1695	1234	10406
1676	1501	10412
1540	1735	10416
1440	1382	10421
1398	1243	10426
1357	1261	10430
1389	1424	10435
1386	1645	10439
1381	1801	10444
1355	1564	10449
1332	1483	10454
1341	1501	10459
1411	1606	10464
1479	1471	10468
1471	1456	10473
1408	1489	10477
1301	1456	10482
1218	1427	10487
1249	1243	10491
1279	1215	10497
1289	1282	10502
1334	1441	10506
1330	1400	10511
1218	1381	10516
1091	1305	10520
1220	1340	10525
1320	1418	10529
1252	1307	10534
1213	1254	10540
1266	1486	10544
1346	1605	10549
1289	1320	10554
1137	1431	10558
1114	1486	10563
1113	1330	10567
1109	1308	10572
1189	1288	10577
1286	1289	10582
1281	1329	10587
1195	1570	10592
1148	1426	10596
1182	1163	10601
1228	1224	10605
1253	1347	10610
1245	1236	10615
1207	1214	10619
1257	1602	10625
1537	1332	10630
1711	1139	10634
1681	1188	10639
1546	1153	10644
1352	1160	10648
1233	1485	10653
1371	1511	10657
1523	1212	10662
1574	1128	10668
1578	1160	10672
1564	1200	10677
1564	1304	10682
1577	1373	10686
1582	1382	10691
1583	1309	10695
1577	1311	10700
1577	1366	10705
1582	1504	10710
1603	1485	10715
1618	1431	10720
1618	1429	10724
1602	1449	10729
1586	1478	10734
1576	1528	10738
1572	1553	10743
1556	1515	10747
1545	1481	10753
1554	1469	10758
1589	1476	10762
1613	1618	10767
1609	1619	10772
1543	1493	10776
1490	1470	10781
1517	1466	10785
1572	1438	10790
1590	1445	10796
1523	1533	10800
1455	1507	10805
1459	1446	10810
1503	1390	10814
1528	1406	10819
1502	1515	10823
1489	1413	10828
1509	1343	10833
1522	1300	10838
1509	1300	10843
1530	1460	10848
1596	1497	10852
1632	1493	10857
1707	1341	10861
1761	1283	10866
1621	1300	10871
1438	1298	10875
1379	1263	10881
1462	1264	10886
1543	1309	10890
1518	1360	10895
1432	1334	10900
1389	1328	10904
1288	1410	10909
1287	1402	10913
1429	1415	10918
1546	1412	10924
1643	1350	10928
1721	1376	10933
1712	1501	10938
1672	1618	10942
1667	1560	10947
1493	1418	10951
1250	1350	10956
1281	1286	10961
1534	1267	10966
1751	1377	10971
1797	1431	10976
1666	1393	10980
1488	1308	10985
1425	1415	10989
1474	1621	10994
1612	1655	10999
1707	1692	11003
1733	1440	11009
1723	1342	11014
1629	1480	11018
1508	1495	11023
1545	1344	11028
1620	1260	11032
1615	1258	11037
1588	1293	11041
1623	1336	11046
1705	1371	11052
1732	1393	11056
1695	1419	11061
1630	1487	11066
1629	1867	11070
1691	2047	11075
1779	1668	11079
1807	1463	11084
1737	1404	11089
1671	1524	11094
1766	1754	11099
1837	1636	11104
1810	1491	11108
1686	1402	11113
1592	1401	11117
1502	1445	11122
1372	1555	11127
1308	1535	11131
1306	1573	11137
1385	1655	11142
1433	1956	11146
1461	2047	11151
1546	1768	11156
1595	1573	11160
1485	1515	11165
1350	1594	11169
1334	1668	11174
1423	1604	11180
1476	1557	11184
1437	1543	11189
1403	1555	11194
1410	1565	11198
1401	1586	11203
1407	1675	11207
1432	2047	11212
1463	2047	11217
1470	1772	11222
1433	1627	11227
1387	1559	11232
1304	1574	11236
1214	1704	11241
1141	1797	11245
1200	1643	11250
1325	1561	11255
1454	1542	11259
1571	1544	11265
1577	1543	11270
1520	1544	11274
1401	1561	11279
1314	1589	11284
1272	1676	11288
1240	1783	11293
1222	1677	11297
1291	1589	11302
1420	1671	11308
1449	1836	11312
1446	1902	11317
1445	1720	11322
1450	1557	11326
1422	1501	11331
1426	1489	11335
1503	1503	11340
1476	1524	11345
1380	1543	11350
1335	1577	11355
1365	1572	11360
1461	1562	11364
1483	1661	11369
1472	1804	11373
1483	1795	11378
1423	1605	11383
1306	1486	11387
1283	1489	11393
1382	2001	11398
1430	2047	11402
1468	1730	11407
1516	1468	11412
1529	1364	11416
1487	1451	11421
1511	1846	11425
1633	1656	11430
1685	1405	11436
1643	1483	11440
1499	1937	11445
1435	1628	11450
1438	1358	11454
1425	1481	11459
1371	1552	11463
1366	1326	11468
1436	1242	11473
1518	1488	11478
1536	1879	11483
1622	1580	11488
1677	1294	11492
1702	1256	11497
1666	1421	11501
1673	1461	11506
1656	1420	11511
1613	1257	11515
1633	1559	11521
1627	1810	11526
1580	1555	11530
1516	1482	11535
1530	1923	11540
1574	1678	11544
1556	1222	11549
1505	1387	11553
1532	1605	11558
1479	1375	11564
1397	1434	11568
1385	1449	11573
1358	1208	11578
1198	1463	11582
1199	1427	11587
1336	1269	11591
1494	1715	11596
1452	1332	11601
1344	1103	11606
1177	1621	11611
1200	1752	11616
1395	1280	11620
1594	1326	11625
1597	1683	11629
1493	1502	11634
1401	1396	11639
1484	1706	11643
1459	1631	11649
1388	1330	11654
1456	1351	11658
1490	1808	11663
1484	1624	11668
1396	1205	11672
1258	1195	11677
1108	1486	11681
1124	1765	11686
1276	1538	11692
1312	1283	11696
1253	1339	11701
1179	1740	11706
1106	1221	11710
1146	1328	11715
1214	1530	11719
1187	1237	11724
1082	1048	11729
1168	1194	11734
1314	1320	11739
1328	1200	11744
1227	1310	11748
1186	1424	11753
1153	1287	11757
1118	1603	11762
1145	1499	11767
1218	1155	11771
1302	1303	11777
1347	1318	11782
1278	1198	11786
1146	1252	11791
1203	1428	11796
1395	1511	11800
1460	1307	11805
1367	1191	11809
1356	1254	11814
1400	1550	11820
1452	1561	11824
1495	1293	11829
1478	1225	11834
1355	1415	11838
1313	1355	11843
1408	1315	11847
1567	1304	11852
1676	1304	11857
1700	1278	11862
1698	1283	11867
1694	1348	11872
1699	1367	11876
1708	1357	11881
1708	1368	11885
1700	1385	11890
1695	1405	11895
1698	1444	11899
1712	1462	11905
1734	1470	11910
1758	1571	11914
1785	1652	11919
1807	1628	11924
1828	1698	11928
1845	1553	11933
1849	1472	11937
1845	1476	11942
1839	1521	11948
1854	1507	11952
1875	1479	11957
1840	1473	11962
1769	1475	11966
1708	1496	11971
1673	1547	11975
1663	1527	11980
1659	1487	11985
1651	1496	11990
1590	1665	11995
1535	1636	12000
1529	1539	12004
1613	1450	12009
1704	1429	12013
1679	1586	12018
1616	1745	12023
1618	1566	12027
1624	1439	12033
1622	1360	12038
1586	1322	12042
1557	1330	12047
1544	1316	12052
1571	1313	12056
1597	1297	12061
1606	1315	12065
1578	1398	12070
1567	1514	12076
1544	1552	12080
1465	1385	12085
1301	1458	12090
1241	1498	12094
1307	1379	12099
1448	1302	12103
1579	1418	12108
1687	1609	12113
1689	1462	12118
1621	1299	12123
1536	1246	12128
1440	1276	12132
1411	1408	12137
1413	1461	12141
1451	1380	12146
1558	1349	12151
1658	1420	12155
1765	1734	12161
1788	1944	12166
1754	1600	12170
1662	1455	12175
1559	1493	12180
1513	1509	12184
1515	1313	12189
1513	1264	12193
1521	1274	12198
1567	1296	12204
1541	1325	12208
1483	1351	12213
1426	1391	12218
1360	1426	12222
1404	1609	12227
1502	1610	12231
1652	1470	12236
1723	1477	12241
1750	1838	12246
1767	2010	12251
1783	1701	12256
1756	1439	12260
1705	1358	12265
1736	1452	12269
1612	1586	12274
1449	1511	12279
1398	1445	12283
1417	1436	12289
1462	1456	12294
1496	1488	12298
1526	1527	12303
1517	1566	12308
1446	1636	12312
1453	1752	12317
1561	1818	12321
1708	1940	12326
1814	2012	12332
1886	1958	12336
1868	1840	12341
1815	1618	12346
1777	1531	12350
1700	1550	12355
1495	1539	12359
1378	1539	12364
1479	1564	12369
1658	1589	12374
1738	1599	12379
1731	1613	12384
1603	1637	12388
1507	1900	12393
1493	2047	12397
1558	1908	12402
1619	1709	12407
1674	1652	12411
1690	1581	12417
1672	1594	12422
1672	1749	12426
1668	1614	12431
1615	1507	12436
1496	1481	12440
1398	1485	12445
1349	1498	12449
1296	1518	12454
1292	1543	12460
1375	1550	12464
1433	1555	12469
1412	1567	12474
1364	1583	12478
1395	1672	12483
1446	1924	12487
1480	1922	12492
1490	1806	12497
1455	1713	12502
1378	1580	12507
1415	1480	12512
1523	1462	12516
1583	1485	12521
1550	1494	12525
1493	1500	12530
1400	1515	12535
1350	1523	12539
1420	1539	12545
1512	1574	12550
1434	1748	12554
1347	1690	12559
1352	1679	12564
1347	2047	12568
1339	2047	12573
1388	1760	12577
1473	1664	12582
1511	1482	12588
1569	1402	12592
1565	1555	12597
1415	1516	12602
1339	1675	12606
1351	1894	12611
1393	1549	12615
1405	1284	12620
1348	1268	12625
1325	1376	12630
1357	1650	12635
1366	2021	12640
1396	1540	12644
1463	1262	12649
1497	1320	12654
1435	1245	12658
1412	1169	12663
1446	1234	12667
1421	1217	12673
1414	1330	12678
1452	1775	12682
1505	1753	12687
1519	1551	12692
1510	1480	12696
1507	1507	12701
1499	1634	12705
1499	1458	12710
1518	1645	12716
1576	1893	12720
1582	1338	12725
1513	1337	12730
1466	1780	12734
1487	1456	12739
1548	1126	12743
1510	1279	12748
1338	1492	12753
1279	1436	12758
1377	1452	12763
1550	1434	12768
1594	1090	12772
1527	1381	12777
1516	1647	12782
1657	1182	12786
1727	1168	12791
1673	1314	12795
1600	1300	12801
1589	1176	12806
1591	1434	12810
1554	1503	12815
1488	1235	12820
1295	1486	12824
1216	1479	12829
1276	1200	12833
1350	1480	12838
1234	1442	12844
1106	1534	12848
1169	1623	12853
1299	1338	12858
1335	1239	12862
1272	1472	12867
1140	1434	12871
1137	1470	12876
1247	1540	12881
1391	1420	12886
1427	1135	12891
1340	1201	12896
1233	1388	12900
1214	1183	12905
1221	1179	12909
1204	1669	12914
1201	1301	12919
1163	1121	12923
1064	1446	12929
1104	1579	12934
1202	1207	12938
1138	1157	12943
1068	1341	12948
1099	1578	12952
1188	1436	12957
1126	1593	12961
1002	1573	12966
1004	1239	12972
1087	1216	12976
1224	1427	12981
1323	1322	12986
1395	1179	12990
1280	1238	12995
1078	1507	12999
1048	1446	13004
1184	1270	13009
1336	1339	13014
1471	1564	13019
1578	1311	13024
1633	1308	13028
1666	1336	13033
1686	1436	13037
1692	1443	13042
1707	1354	13047
1716	1406	13051
1722	1371	13057
1722	1362	13062
1721	1394	13066
1723	1481	13071
1726	1521	13075
1728	1519	13080
1729	1528	13085
1725	1544	13089
1722	1591	13094
1714	1699	13100
1717	1616	13104
1722	1587	13109
1728	1572	13114
1766	1632	13118
1795	1649	13123
1784	1649	13127
1740	1556	13132
1724	1469	13137
1728	1429	13142
1712	1431	13147
1598	1480	13152
1529	1482	13156
1662	1444	13161
1774	1411	13165
1819	1403	13170
1817	1496	13175
1807	1753	13179
1786	1544	13185
1742	1423	13190
1749	1368	13194
1806	1363	13199
1919	1529	13203
1980	1444	13208
1943	1562	13213
1833	1629	13217
1656	1532	13222
1587	1354	13228
1640	1282	13232
1744	1261	13237
1786	1265	13242
1807	1284	13246
1775	1278	13251
1641	1300	13255
1594	1313	13260
1638	1361	13265
1784	1366	13270
1843	1544	13275
1848	1507	13280
1792	1458	13284
1749	1669	13289
1745	1644	13293
1736	1557	13298
1620	1631	13303
1495	1476	13307
1419	1322	13313
1435	1243	13318
1508	1223	13322
1645	1261	13327
1730	1464	13331
1729	1394	13336
1667	1298	13341
1669	1277	13345
1731	1335	13350
1749	1599	13356
1736	1739	13360
1753	1710	13365
1714	1679	13370
1698	1434	13374
1690	1328	13379
1644	1399	13383
1615	1327	13388
1577	1318	13393
1484	1316	13398
1380	1340	13403
1352	1370	13408
1401	1400	13412
1499	1560	13417
1568	1578	13421
1584	1616	13426
1612	1871	13431
1685	1797	13435
1716	1601	13441
1702	1537	13446
1677	1533	13450
1635	1630	13455
1554	1713	13459
1487	1495	13464
1481	1419	13469
1441	1410	13473
1386	1444	13478
1400	1489	13484
1439	1529	13488
1469	1604	13493
1515	1638	13498
1563	1598	13502
1602	1711	13507
1578	2047	13511
1517	2047	13516
1471	1804	13521
1474	1573	13526
1496	1500	13531
1504	1527	13536
1515	1666	13540
1409	1790	13545
1290	1782	13549
1306	1600	13554
1421	1566	13559
1542	1565	13563
1622	1589	13569
1606	1615	13574
1524	1622	13578
1513	1642	13583
1518	1646	13587
1510	1649	13592
1474	1661	13597
1369	1682	13601
1334	1660	13606
1396	1650	13612
1494	1691	13616
1543	1757	13621
1541	1767	13626
1483	1696	13630
1397	1675	13635
1367	1652	13639
1464	1649	13644
1632	1663	13649
1696	1660	13654
1731	1682	13659
1796	1633	13664
1822	1613	13668
1801	1606	13673
1686	1616	13677
1591	1620	13682
1510	1640	13687
1390	1719	13691
1344	1835	13697
1397	1877	13702
1499	1714	13706
1524	1581	13711
1488	1530	13715
1424	1524	13720
1331	1581	13725
1372	1795	13729
1513	1970	13734
1663	1782	13740
1627	1562	13744
1458	1499	13749
1283	1618	13754
1280	1668	13758
1480	1651	13763
1635	1576	13767
1560	1636	13772
1358	1658	13777
1260	1461	13782
1323	1387	13787
1408	1441	13792
1386	1995	13796
1346	1980	13801
1335	1540	13805
1271	1347	13810
1233	1449	13815
1317	1834	13819
1384	1733	13825
1398	1373	13830
1355	1529	13834
1229	1728	13839
1153	1386	13843
1206	1462	13848
1341	1808	13853
1512	1438	13857
1591	1387	13862
1570	1578	13868
1476	1433	13872
1305	1545	13877
1272	1596	13882
1420	1447	13886
1459	1299	13891
1312	1164	13895
1269	1114	13900
1368	1191	13905
1355	1473	13910
1252	1370	13915
1236	1565	13920
1358	1432	13924
1434	1247	13929
1344	1349	13933
1180	1411	13938
1072	1432	13943
1139	1282	13947
1272	1575	13953
1305	1681	13958
1207	1227	13962
1146	1186	13967
1216	1252	13972
1274	1109	13976
1310	1370	13981
1326	1969	13985
1346	1405	13990
1324	1082	13996
1253	1167	14000
1216	1228	14005
1259	1341	14010
1376	1793	14014
1396	1590	14019
1355	1461	14023
1312	1474	14028
1329	1219	14033
1319	1406	14038
1297	1644	14043
1276	1265	14048
1243	1521	14052
1170	1504	14057
1174	1122	14061
1211	1336	14066
1197	1322	14071
1220	1191	14075
1325	1268	14081
1480	1325	14086
1561	1188	14090
1414	1034	14095
1305	1317	14099
1337	1253	14104
1396	1081	14109
1377	1263	14113
1330	1601	14118
1244	1230	14124
1124	1267	14128
1140	1468	14133
1267	1276	14138
1377	1568	14142
1367	1566	14147
1310	1261	14151
1265	1338	14156
1228	1306	14161
1311	1276	14166
1358	1433	14171
1271	1545	14176
1197	1201	14180
1252	1156	14185
1395	1411	14189
1521	1367	14194
1475	1216	14199
1331	1177	14203
1256	1557	14209
1285	1609	14214
1322	1262	14218
1362	1196	14223
1416	1293	14227
1494	1298	14232
1572	1311	14237
1640	1314	14241
1681	1373	14246
1697	1372	14252
1693	1356	14256
1686	1453	14261
1705	1520	14265
1693	1516	14270
1639	1435	14275
1655	1426	14279
1826	1409	14284
1887	1416	14289
1825	1448	14294
1721	1483	14299
1638	1494	14304
1601	1619	14308
1587	1775	14313
1589	1636	14317
1592	1616	14322
1588	1534	14327
1584	1443	14331
1582	1403	14337
1581	1398	14342
1562	1418	14346
1539	1441	14351
1548	1466	14355
1601	1468	14360
1624	1476	14365
1657	1497	14369
1644	1547	14374
1583	1543	14380
1546	1521	14384
1559	1554	14389
1578	1650	14394
1520	1782	14398
1467	1648	14403
1504	1460	14407
1570	1394	14412
1611	1390	14417
1635	1420	14422
1590	1469	14427
1548	1384	14432
1525	1359	14436
1566	1364	14441
1612	1352	14445
1653	1361	14450
1680	1386	14455
1689	1516	14459
1703	1651	14465
1724	1467	14470
1766	1388	14474
1810	1377	14479
1733	1681	14483
1680	1792	14488
1679	1476	14493
1725	1364	14497
1721	1375	14502
1682	1330	14508
1643	1320	14512
1694	1345	14517
1804	1465	14521
1856	1404	14526
1818	1354	14531
1610	1404	14535
1501	1568	14540
1531	1437	14545
1631	1412	14550
1672	1671	14555
1602	1927	14560
1524	1560	14564
1477	1407	14569
1443	1454	14573
1484	1385	14578
1478	1308	14583
1404	1278	14587
1347	1279	14593
1342	1313	14598
1411	1284	14602
1522	1321	14607
1592	1458	14611
1573	1645	14616
1548	1636	14621
1568	1764	14625
1608	1808	14630
1579	1555	14636
1547	1373	14640
1550	1395	14645
1585	1430	14649
1560	1338	14654
1476	1361	14659
1415	1479	14663
1432	1472	14668
1462	1441	14673
1482	1451	14678
1388	1487	14683
1254	1667	14688
1207	1815	14692
1309	1657	14697
1423	1655	14701
1578	1918	14706
1691	2047	14711
1664	1799	14715
1572	1561	14721
1494	1506	14726
1420	1520	14730
1373	1590	14735
1386	1556	14739
1390	1521	14744
1325	1536	14749
1273	1556	14753
1329	1576	14758
1460	1588	14764
1573	1603	14768
1555	1618	14773
1472	1630	14778
1462	1670	14782
1614	1870	14787
1679	2047	14791
1641	1832	14796
1519	1626	14801
1404	1553	14806
1285	1535	14811
1181	1620	14816
1143	1777	14820
1116	1622	14825
1145	1539	14829
1271	1524	14834
1453	1512	14839
1605	1568	14843
1660	1728	14849
1622	1673	14854
1588	1539	14858
1495	1509	14863
1370	1505	14867
1330	1509	14872
1363	1568	14877
1380	1646	14881
1363	1603	14886
1410	1559	14892
1452	1555	14896
1499	1577	14901
1548	1824	14905
1615	2047	14910
1642	2047	14915
1593	1915	14919
1465	1911	14924
1446	1768	14929
1544	1469	14934
1614	1399	14939
1602	1636	14944
1535	1798	14948
1457	1560	14953
1433	1311	14957
1424	1246	14962
1464	1256	14967
1490	1446	14971
1438	1687	14977
1346	1462	14982
1297	1305	14986
1294	1278	14991
1299	1514	14995
1288	1756	15000
1220	1499	15005
1138	1326	15009
1184	1313	15014
1286	1675	15020
1297	2047	15024
1205	1629	15029
1064	1300	15034
1032	1209	15038
1155	1418	15043
1242	1879	15047
1187	1735	15052
1121	1401	15057
1145	1543	15062
1212	1775	15067
1252	1879	15072
1221	1853	15076
1096	1331	15081
1044	1130	15085
1148	1182	15090
1260	1508	15095
1234	1534	15099
1135	1149	15105
1061	987	15110
1129	1017	15114
1262	1480	15119
1377	1926	15123
1354	1381	15128
1238	1102	15133
1169	1161	15137
1311	1672	15142
1424	1463	15148
1301	1079	15152
1180	1033	15157
1248	1154	15161
1399	1884	15166
1421	1585	15171
1312	1134	15175
1129	1053	15180
1121	1084	15185
1291	1320	15190
1355	1775	15195
1192	1334	15199
1128	1138	15204
1231	1149	15209
1312	1646	15213
1272	1887	15218
1242	1531	15223
1263	1224	15227
1288	1155	15233
1304	1366	15238
1337	1706	15242
1325	1659	15247
1194	1277	15251
1103	1317	15256
1279	1260	15261
1418	1051	15265
1394	1140	15270
1276	1686	15276
1270	1526	15280
1326	1100	15285
1356	1063	15289
1378	1246	15294
1481	1338	15299
1613	1292	15303
1648	1552	15308
1670	1370	15313
1656	1175	15318
1557	1236	15323
1540	1375	15327
1641	1366	15332
1733	1153	15337
1755	1186	15341
1767	1246	15346
1666	1248	15351
1572	1561	15355
1567	1527	15361
1651	1347	15366
1759	1334	15370
1754	1383	15375
1654	1160	15379
1605	1111	15384
1605	1119	15389
1647	1171	15393
1696	1240	15398
1750	1307	15404
1781	1321	15408
1801	1304	15413
1808	1301	15417
1789	1357	15422
1757	1462	15427
1743	1465	15431
1760	1409	15436
1793	1369	15441
1802	1420	15446
1794	1578	15451
1783	1591	15455
1774	1529	15460
1767	1485	15465
1757	1452	15469
1746	1459	15474
1738	1546	15479
1734	1662	15483
1734	1594	15489
1732	1537	15493
1761	1565	15498
1814	1591	15503
1798	1616	15507
1748	1639	15512
1684	1610	15517
1675	1549	15521
1678	1512	15526
1636	1512	15532
1546	1552	15536
1465	1565	15541
1452	1606	15545
1593	1658	15550
1742	1641	15555
1809	1675	15559
1688	1592	15564
1582	1461	15569
1576	1411	15574
1600	1435	15579
1649	1666	15583
1663	1899	15588
1631	1536	15593
1622	1375	15597
1544	1307	15602
1406	1303	15607
1424	1335	15611
1554	1305	15617
1662	1293	15621
1718	1299	15626
1751	1325	15631
1659	1430	15635
1456	1509	15640
1491	1417	15645
1676	1366	15649
1856	1450	15654
1926	1738	15660
1910	1992	15664
1871	1637	15669
1775	1382	15673
1593	1242	15678
1389	1225	15683
1311	1265	15687
1377	1303	15692
1529	1487	15697
1634	1375	15702
1670	1291	15707
1652	1292	15711
1701	1469	15716
1755	1662	15721
1778	1464	15725
1755	1613	15730
1753	1939	15735
1801	1689	15739
1893	1448	15745
1924	1464	15750
1918	1524	15754
1826	1401	15759
1680	1403	15763
1576	1434	15768
1563	1373	15773
1615	1290	15777
1645	1286	15782
1628	1319	15788
1541	1365	15792
1453	1407	15797
1414	1438	15801
1458	1467	15806
1563	1494	15811
1632	1589	15815
1652	1640	15820
1640	1561	15825
1651	1539	15830
1687	1662	15835
1705	1910	15839
1667	1925	15844
1577	1684	15849
1474	1603	15853
1378	1648	15858
1316	1977	15863
1305	1814	15867
1341	1607	15873
1353	1528	15877
1293	1520	15882
1274	1554	15887
1332	1613	15891
1462	1625	15896
1530	1612	15901
1548	1617	15905
1514	1628	15910
1453	1646	15916
1282	1673	15920
1146	1704	15925
1195	1705	15929
1330	1697	15934
1498	1814	15939
1607	1926	15943
1611	1747	15948
1579	1636	15953
1525	1590	15958
1443	1583	15963
1383	1658	15967
1401	1694	15972
1426	1599	15977
1342	1548	15981
1238	1532	15986
1232	1626	15991
1306	1848	15995
1382	1769	16001
1409	1577	16006
1407	1513	16010
1406	1544	16015
1387	1588	16019
1354	1546	16024
1351	1527	16029
1402	1512	16033
1473	1514	16038
1457	1527	16044
1357	1600	16048
1180	1591	16053
990	1536	16057
973	1600	16062
1142	2047	16067
1317	2047	16071
1422	1956	16076
1475	1522	16080
1496	1369	16086
1591	1443	16091
1580	1711	16095
1500	1664	16100
1379	1536	16105
1304	1347	16109
1295	1273	16114
1316	1262	16118
1305	1289	16123
1239	1366	16129
1244	1753	16133
1257	1964	16138
1239	1711	16143
1194	1424	16147
1200	1269	16152
1252	1591	16157
1326	1946	16161
1381	1782	16166
1362	1309	16171
1249	1212	16176
1222	1215	16181
1304	1187	16185
1297	1228	16190
1146	1457	16195
1057	1713	16199
1058	1540	16204
1109	1309	16208
1208	1274	16214
1209	1283	16219
1234	1756	16223
1239	2047	16228
1216	1758	16233
1189	1500	16237
1186	1303	16242
1163	1717	16246
1173	1834	16251
1151	1407	16257
998	1075	16261
1038	1238	16266
1225	1889	16271
1383	1773	16275
1282	1378	16280
1103	1529	16284
1031	1692	16289
1075	1597	16294
1174	1366	16299
1284	1345	16304
1379	1615	16309
1421	1171	16313
1444	1164	16318
1494	1504	16323
1475	1200	16327
1409	943	16332
1397	1132	16336
1439	1616	16342
1418	1376	16347
1314	1026	16351
1187	1113	16356
1168	1480	16361
1247	1564	16365
1410	1555	16370
1462	1440	16374
1406	1634	16379
1323	1619	16385
1296	1318	16389
1436	1341	16394
1534	1271	16399
1430	1451	16403
1306	1482	16408
1271	1480	16412
1252	1428	16417
1337	1363	16422
1527	1360	16427
1570	1095	16432
1404	1127	16437
1266	1323	16441
1302	1275	16446
1400	1191	16450
1419	1200	16455
1397	1206	16460
1365	1214	16464
1386	1594	16470
1371	1510	16475
1312	1354	16479
1345	1299	16484
1323	1182	16488
1287	1345	16493
1407	1674	16498
1489	1529	16502
1353	1249	16507
1216	1304	16513
1239	1291	16517
1392	1681	16522
1420	1625	16527
1343	1322	16531
1224	1427	16536
1150	1275	16540
1122	1322	16545
1271	1683	16550
1599	1359	16555
1752	1196	16560
1732	1399	16565
1744	1409	16569
1738	1235	16574
1686	1305	16578
1705	1494	16583
1682	1326	16588
1666	1412	16592
1738	1216	16598
1798	1152	16603
1912	1244	16607
1980	1338	16612
1951	1418	16616
1884	1401	16621
1779	1692	16626
1728	1390	16630
1701	1276	16635
1706	1267	16641
1710	1560	16645
1716	1577	16650
1822	1576	16655
1902	1441	16659
1829	1332	16664
1819	1422	16668
1850	1633	16673
1816	1508	16678
1759	1353	16683
1764	1409	16688
1827	1580	16693
1760	1423	16697
1664	1460	16702
1623	1466	16706
1652	1676	16711
1667	1668	16716
1707	1477	16720
1866	1410	16726
1971	1386	16731
1898	1423	16735
1784	1633	16740
1667	1816	16744
1618	1606	16749
1620	1368	16754
1567	1414	16758
1484	1411	16763
1533	1342	16769
1618	1307	16773
1709	1376	16778
1841	1399	16783
1788	1426	16787
1658	1621	16792
1619	1511	16796
1624	1423	16801
1574	1551	16806
1483	1568	16811
1461	1526	16816
1548	1542	16821
1609	1446	16825
1647	1508	16830
1728	1495	16834
1831	1438	16839
1846	1377	16844
1784	1374	16848
1752	1394	16854
1763	1496	16859
1711	1672	16863
1536	1766	16868
1307	1574	16872
1248	1722	16877
1447	1507	16882
1703	1412	16886
1695	1416	16891
1657	1448	16897
1688	1430	16901
1687	1432	16906
1680	1442	16911
1670	1472	16915
1648	1548	16920
1616	1767	16924
1596	1536	16929
1585	1513	16934
1526	1556	16939
1445	1611	16944
1396	1573	16949
1404	1543	16953
1464	1524	16958
1569	1520	16962
1659	1507	16967
1724	1509	16972
1771	1521	16976
1817	1533	16982
1846	1565	16987
1859	1595	16991
1856	1564	16996
1854	1552	17000
1944	1584	17005
2005	1688	17010
1922	1579	17014
1805	1577	17019
1707	1541	17025
1647	1528	17029
1564	1628	17034
1488	1620	17038
1481	1503	17043
1514	1467	17048
1543	1457	17052
1560	1483	17057
1547	1507	17062
1513	1478	17067
1485	1478	17072
1514	1487	17077
1581	1513	17081
1572	1589	17086
1469	1529	17090
1382	1492	17095
1407	1511	17100
1493	1525	17104
1545	1553	17110
1520	1559	17115
1428	1772	17119
1332	1740	17124
1327	1480	17128
1431	1363	17133
1501	1334	17138
1467	1347	17142
1287	1403	17147
1213	1497	17153
1276	1438	17157
1427	1408	17162
1512	1409	17167
1526	1515	17171
1486	1537	17176
1500	1620	17180
1560	1573	17185
1573	1453	17190
1475	1404	17195
1304	1529	17200
1209	1432	17205
1257	1394	17209
1297	1655	17214
1275	1550	17218
1325	1338	17223
1427	1291	17228
1502	1304	17232
1530	1372	17238
1564	1400	17243
1605	1415	17247
1619	1389	17252
1622	1522	17256
1592	1548	17261
1472	1423	17266
1342	1365	17270
1278	1365	17275
1302	1425	17281
1357	1572	17285
1329	1528	17290
1292	1464	17294
1277	1461	17299
1339	1362	17304
1457	1320	17308
1622	1565	17313
1663	1701	17318
1590	1441	17323
1367	1273	17328
1231	1245	17333
1266	1336	17337
1344	1741	17342
1440	1871	17346
1519	1511	17351
1584	1294	17356
1638	1250	17360
1542	1274	17366
1408	1419	17371
1373	1524	17375
1442	1376	17380
1628	1338	17384
1719	1353	17389
1615	1381	17394
1515	1414	17398
1580	1484	17403
1696	1484	17409
1782	1493	17413
1844	1524	17418
1797	1685	17422
1645	1824	17427
1567	1649	17432
1563	1557	17436
1635	1505	17441
1763	1622	17446
1792	1915	17451
1701	1762	17456
1590	1555	17461
1467	1495	17465
1311	1539	17470
1171	1711	17474
1196	1727	17479
1333	1557	17484
1448	1505	17488
1483	1541	17494
1448	1651	17499
1400	1709	17503
1344	1614	17508
1351	1571	17512
1407	1568	17517
1467	1576	17522
1510	1601	17526
1506	1661	17531
1456	1730	17537
1399	1703	17541
1402	1668	17546
1452	1658	17550
1479	1668	17555
1430	1697	17560
1373	1724	17564
1417	1720	17569
1495	1706	17574
1538	1738	17579
1591	1879	17584
1626	1950	17589
1583	1822	17593
1513	1689	17598
1444	1641	17602
1451	1772	17607
1434	2019	17612
1412	1849	17616
1413	1639	17622
1376	1558	17627
1316	1532	17631
1303	1534	17636
1338	1538	17640
1400	1555	17645
1435	1616	17650
1480	1682	17654
1529	1684	17659
1525	1655	17665
1482	1615	17669
1436	1588	17674
1395	1576	17678
1336	1605	17683
1272	1756	17688
1198	1751	17692
1223	1610	17697
1322	1532	17702
1424	1501	17707
1424	1498	17712
1329	1514	17717
1291	1550	17721
1380	1537	17726
1492	1549	17730
1569	1584	17735
1631	1605	17740
1655	1607	17744
1650	1612	17750
1618	1618	17755
1586	1624	17759
1561	1631	17764
1532	1633	17768
1499	1637	17773
1449	1644	17778
1414	1654	17782
1451	1654	17787
1534	1656	17793
1627	1662	17797
1723	1672	17802
1712	1675	17806
1642	1678	17811
1629	1674	17816
1717	1668	17820
1803	1659	17825
1825	1651	17830
1788	1656	17835
1727	1677	17840
1655	1693	17845
1610	1666	17849
1583	1636	17854
1562	1621	17858
1542	1615	17863
1523	1611	17868
1499	1609	17872
1456	1607	17878
1420	1605	17883
1412	1604	17887
1429	1602	17892
1433	1599	17896
1427	1596	17901
1439	1596	17906
1456	1592	17910
1441	1587	17915
1432	1582	17921
1461	1570	17925
1477	1562	17930
1439	1587	17935
1399	1638	17939
1401	1628	17944
1445	1563	17948
1475	1516	17953
1470	1494	17958
1456	1481	17963
1456	1481	17968
1455	1486	17973
1431	1484	17977
1378	1482	17982
1306	1482	17986
1228	1485	17991
1239	1494	17996
1332	1530	18000
1448	1565	18006
1532	1560	18011
1535	1498	18015
1493	1464	18020
1451	1476	18024
1423	1511	18029
1402	1506	18034
1381	1479	18038
1291	1470	18043
1225	1438	18049
1248	1426	18053
1355	1423	18058
1409	1437	18062
1402	1452	18067
1410	1443	18072
1485	1442	18076
1605	1446	18081
1632	1455	18086
1491	1484	18091
1286	1641	18096
1189	1836	18101
1194	1780	18105
1213	1619	18110
1210	1603	18114
1171	1706	18119
1165	1825	18124
1255	1890	18128
1438	1934	18134
1485	1839	18139
1398	1508	18143
1368	1271	18148
1390	1221	18152
1380	1301	18157
1363	1434	18162
1378	1312	18166
1380	1166	18171
1401	1121	18177
1396	1121	18181
1362	1154	18186
1367	1318	18190
1426	1504	18195
1447	1438	18200
1476	1253	18204
1474	1348	18209
1399	1598	18214
1340	1653	18219
1434	1506	18224
1561	1264	18229
1589	1260	18233
1515	1778	18238
1425	1779	18242
1461	1375	18247
1535	1256	18252
1544	1616	18256
1405	1496	18262
1290	1053	18267
1271	1144	18271
1261	1400	18276
1319	1604	18280
1449	1356	18285
1552	1106	18290
1582	1403	18294
1555	1605	18299
1450	1102	18305
1375	995	18309
1261	1311	18314
1151	1167	18318
1158	948	18323
1259	1248	18328
1409	1635	18332
1454	1294	18337
1438	1054	18342
1408	1194	18347
1399	1379	18352
1386	1224	18356
1408	1058	18361
1375	1227	18366
1300	1160	18370
1285	952	18375
1343	1142	18380
1411	1705	18384
1371	1665	18390
1260	1195	18394
1204	1247	18399
1250	1609	18404
1299	1357	18408
1366	1040	18413
1395	1247	18418
1388	1730	18422
1374	1434	18427
1343	1034	18432
1339	1238	18437
1291	1598	18442
1155	1252	18446
1134	1155	18451
1231	1460	18456
1257	1213	18460
1240	1297	18465
1180	1578	18470
1184	1273	18475
1215	1070	18480
1243	1383	18484
1243	1385	18489
1226	1104	18494
1204	1069	18498
1222	1123	18503
1248	1324	18508
1290	1284	18512
1304	1328	18518
1311	1352	18522
1310	1173	18527
1210	1367	18532
1106	1639	18536
1092	1223	18541
1077	1147	18546
1048	1447	18550
993	1602	18555
1009	1280	18560
1012	1214	18565
978	1472	18570
956	1352	18574
983	1117	18579
1047	1122	18583
1117	1171	18588
1170	1178	18593
1253	1325	18597
1356	1256	18603
1414	1167	18608
1536	1247	18612
1648	1534	18617
1694	1838	18621
1661	1393	18626
1522	1238	18631
1450	1221	18635
1491	1239	18640
1552	1549	18646
1586	1708	18650
1645	1401	18655
1661	1406	18660
1743	1287	18664
1841	1422	18669
1781	1536	18673
1616	1300	18678
1472	1299	18683
1433	1231	18688
1493	1434	18693
1612	1308	18698
1733	1298	18702
1771	1558	18707
1859	1551	18711
1915	1207	18716
1873	1217	18721
1850	1300	18725
1837	1396	18731
1792	1403	18736
1750	1374	18740
1785	1249	18745
1841	1239	18749
1843	1377	18754
1761	1513	18759
1714	1488	18763
1636	1569	18768
1597	1485	18774
1636	1346	18778
1663	1256	18783
1612	1336	18788
1564	1320	18792
1598	1474	18797
1639	1786	18801
1709	1609	18806
1779	1325	18811
1786	1299	18816
1715	1402	18821
1617	1379	18826
1576	1440	18830
1691	1666	18835
1702	1815	18839
1614	1512	18844
1600	1380	18849
1617	1322	18853
1593	1343	18859
1555	1430	18864
1519	1869	18868
1621	1583	18873
1671	1350	18877
1627	1353	18882
1461	1474	18887
1389	1468	18891
1444	1517	18896
1522	1617	18902
1533	1492	18906
1523	1402	18911
1525	1368	18915
1560	1443	18920
1617	1465	18925
1637	1439	18929
1600	1445	18934
1508	1548	18939
1402	1620	18944
1497	1502	18949
1597	1534	18954
1649	1570	18958
1679	1517	18963
1684	1492	18967
1744	1610	18972
1790	1679	18977
1746	1544	18981
1700	1442	18987
1655	1460	18992
1609	1582	18996
1584	1586	19001
1544	1516	19005
1574	1421	19010
1664	1419	19015
1784	1448	19019
1892	1562	19024
2047	1525	19030
2047	1532	19034
2040	1494	19039
1842	1470	19044
1619	1451	19048
1426	1556	19053
1375	1658	19057
1464	1560	19062
1632	1479	19067
1725	1429	19072
1776	1437	19077
1775	1561	19082
1696	1515	19086
1632	1477	19091
1623	1496	19095
1665	1517	19100
1615	1583	19105
1620	1517	19109
1640	1468	19115
1642	1452	19120
1634	1466	19124
1653	1561	19129
1660	1568	19133
1597	1478	19138
1401	1441	19143
1166	1443	19147
1127	1500	19152
1322	1580	19158
1565	1540	19162
1637	1446	19167
1608	1411	19172
1608	1409	19176
1576	1447	19181
1522	1457	19185
1514	1510	19190
1521	1498	19195
1342	1741	19200
1051	1630	19205
980	1499	19210
1212	1420	19214
1493	1346	19219
1618	1345	19223
1677	1395	19228
1664	1353	19233
1621	1368	19237
1559	1370	19243
1506	1379	19248
1460	1402	19252
1445	1426	19257
1483	1447	19261
1536	1461	19266
1558	1504	19271
1549	1537	19275
1529	1587	19280
1547	1579	19286
1532	1549	19290
1427	1494	19295
1345	1475	19299
1369	1457	19304
1473	1477	19309
1538	1463	19313
1543	1459	19318
1544	1464	19323
1539	1473	19328
1526	1485	19333
1497	1492	19338
1495	1495	19342
1517	1497	19347
1534	1501	19351
1540	1505	19356
1537	1527	19361
1523	1525	19365
1515	1522	19371
1515	1516	19376
1535	1515	19380
1556	1523	19385
1565	1534	19389
1533	1539	19394
1416	1552	19399
1341	1520	19403
1360	1491	19408
1457	1466	19414
1580	1461	19418
1628	1473	19423
1639	1485	19427
1718	1446	19432
1790	1430	19437
1815	1424	19441
1731	1447	19446
1647	1535	19451
1592	1446	19456
1605	1396	19461
1640	1381	19466
1620	1382	19470
1541	1420	19475
1521	1427	19479
1552	1415	19484
1584	1402	19489
1597	1400	19493
1592	1418	19499
1573	1483	19504
1522	1479	19508
1419	1500	19513
1362	1442	19517
1413	1396	19522
1497	1382	19527
1579	1388	19531
1599	1407	19536
1521	1443	19542
1417	1382	19546
1384	1358	19551
1415	1376	19555
1415	1470	19560
1368	1463	19565
1340	1429	19569
1334	1371	19574
1211	1401	19579
1069	1528	19584
1108	1488	19589
1262	1395	19594
1374	1350	19598
1304	1345	19603
1215	1430	19607
1224	1454	19612
1273	1346	19617
1334	1305	19621
1351	1330	19627
1238	1439	19632
1154	1500	19636
1213	1386	19641
1394	1283	19645
1543	1267	19650
1695	1455	19655
1779	1448	19659
1753	1320	19664
1676	1255	19670
1545	1242	19674
1319	1358	19679
1161	1478	19683
1188	1321	19688
1266	1274	19693
1172	1268	19697
1020	1312	19702
1046	1532	19707
1206	1547	19712
1383	1460	19717
1535	1355	19722
1591	1363	19726
1597	1904	19731
1584	1857	19735
1569	1456	19740
1570	1309	19745
1496	1258	19749
1369	1359	19755
1265	1374	19760
1196	1440	19764
1264	1423	19769
1415	1298	19773
1561	1265	19778
1624	1266	19783
1625	1283	19787
1541	1335	19792
1345	1350	19798
1258	1326	19802
1328	1340	19807
1492	1409	19811
1589	1773	19816
1593	1984	19821
1639	1681	19825
1690	1448	19830
1657	1390	19835
1537	1268	19840
1550	1301	19845
1631	1502	19850
1653	1484	19854
1671	1377	19859
1742	1310	19863
1776	1310	19868
1736	1333	19873
1576	1354	19877
1402	1413	19883
1355	1644	19888
1402	1851	19892
1452	1658	19897
1562	1506	19901
1625	1788	19906
1660	2044	19911
1652	1704	19915
1616	1504	19920
1577	1431	19926
1507	1352	19930
1441	1381	19935
1380	1492	19939
1373	1542	19944
1412	1508	19949
1452	1497	19953
1501	1508	19958
1526	1533	19963
1487	1571	19968
1468	1607	19973
1484	1635	19978
1501	1647	19982
1512	1663	19987
1526	1701	19991
1530	1834	19996
1524	2015	20001
1500	1922	20005
1492	1777	20011
1504	1781	20016
1511	1988	20020
1431	1953	20025
1318	1769	20029
1330	1660	20034
1476	1677	20039
1663	1750	20043
1762	1682	20048
1754	1589	20054
1686	1565	20058
1603	1688	20063
1528	2039	20067
1441	2029	20072
1372	1717	20077
1352	1521	20081
1404	1539	20086
1461	1715	20091
1449	1777	20096
1298	1653	20101
1249	1543	20106
1316	1520	20110
1421	1582	20115
1462	1813	20119
1401	2047	20124
1277	1916	20129
1286	1676	20133
1409	1538	20139
1566	1523	20144
1667	1455	20148
1699	1377	20153
1552	1388	20157
1390	1441	20162
1361	1419	20167
1393	1369	20171
1370	1394	20176
1403	1440	20182
1511	1661	20186
1490	2047	20191
1425	1878	20195
1370	1530	20200
1299	1378	20205
1287	1594	20209
1417	2019	20214
1664	1818	20219
1789	1478	20224
1786	1319	20229
1694	1671	20234
1626	1762	20238
1632	1442	20243
1626	1201	20247
1566	1341	20252
1533	1850	20257
1579	1696	20261
1643	1361	20267
1595	1269	20272
1530	1290	20276
1545	1158	20281
1605	1199	20285
1583	1706	20290
1462	1812	20295
1398	1304	20299
1440	1330	20304
1524	1396	20310
1584	1183	20314
1542	1080	20319
1356	1202	20324
1302	1415	20328
1399	1448	20333
1464	1563	20337
1457	1375	20342
1431	1311	20347
1409	1385	20352
1528	1903	20357
1594	1976	20362
1557	1483	20366
1472	1208	20371
1414	1433	20375
1344	1547	20380
1280	1295	20385
1218	1223	20389
1066	1377	20395
982	1808	20400
1040	1649	20404
1199	1320	20409
1388	1553	20413
1442	1660	20418
1422	1501	20423
1436	1168	20427
1492	1350	20432
1524	1494	20438
1503	1275	20442
1434	1287	20447
1379	1516	20451
1338	1653	20456
1400	1356	20461
1506	1169	20465
1527	1183	20470
1447	1368	20475
1292	1403	20480
1282	1535	20485
1385	1637	20490
1524	1891	20494
1547	1671	20499
1545	1251	20503
1477	1166	20508
1456	1216	20513
1459	1301	20517
1477	1744	20523
1423	1801	20528
1364	1397	20532
1376	1227	20537
1411	1292	20541
1403	1289	20546
1360	1496	20551
1307	1589	20555
1217	1408	20560
1105	1302	20566
1123	1609	20570
1284	1608	20575
1457	1385	20579
1587	1266	20584
1573	1381	20589
1534	1504	20593
1463	1343	20598
1416	1123	20603
1468	1125	20608
1578	1180	20613
1627	1525	20617
1589	1993	20622
1485	1374	20627
1366	1189	20631
1379	1477	20636
1474	1607	20641
1521	1351	20645
1531	1331	20651
1494	1346	20656
1427	1576	20660
1461	1644	20665
1546	1526	20669
1588	1160	20674
1694	1217	20679
1821	1358	20683
1873	1182	20688
1817	1113	20694
1764	1257	20698
1705	1662	20703
1580	1637	20707
1474	1407	20712
1524	1225	20717
1645	1270	20721
1675	1304	20726
1766	1387	20731
1804	1583	20736
1681	1393	20741
1571	1419	20745
1553	1446	20750
1500	1344	20755
1376	1370	20759
1264	1557	20764
1308	1522	20769
1411	1335	20773
1459	1368	20779
1435	1637	20784
1312	1464	20788
1156	1345	20793
1109	1481	20797
1339	1472	20802
1790	1665	20807
2012	1661	20811
1896	1387	20816
1678	1246	20822
1390	1387	20826
1330	1343	20831
1368	1318	20835
1457	1791	20840
1642	1512	20845
1670	1319	20849
1622	1469	20854
1606	1698	20859
1558	1400	20864
1492	1307	20869
1451	1419	20873
1554	1598	20878
1635	1578	20883
1599	1433	20887
1541	1383	20892
1521	1353	20897
1395	1434	20901
1265	1523	20907
1234	1690	20912
1304	1600	20916
1511	1512	20921
1612	1475	20925
1542	1634	20930
1540	1709	20935
1577	1485	20939
1576	1400	20944
1557	1507	20950
1559	1557	20954
1593	1493	20959
1624	1438	20963
1615	1445	20968
1626	1604	20973
1602	1550	20977
1505	1470	20982
1353	1483	20987
1262	1507	20992
1275	1506	20997
1412	1537	21001
1604	1531	21006
1748	1572	21011
1760	1571	21015
1673	1565	21020
1733	1577	21025
1902	1696	21029
1981	1616	21035
1964	1552	21040
1992	1726	21044
2047	1785	21049
1915	1644	21053
1761	1522	21058
1695	1547	21063
1677	1576	21067
1713	1542	21072
1791	1522	21078
1769	1549	21082
1634	1574	21087
1667	1582	21091
1846	1636	21096
1841	1526	21101
1738	1503	21105
1709	1601	21110
1698	1621	21115
1695	1574	21120
1709	1533	21125
1757	1689	21129
1785	1736	21134
1775	1665	21139
1777	1657	21143
1772	1561	21148
1748	1517	21153
1758	1523	21157
1573	1673	21163
1449	1669	21168
1442	1569	21172
1474	1557	21177
1536	1539	21181
1581	1580	21186
1619	1533	21191
1620	1516	21195
1609	1511	21200
1600	1500	21206
1588	1499	21210
1581	1518	21215
1569	1601	21219
1554	1774	21224
1595	1726	21229
1570	1673	21233
1516	1538	21238
1496	1492	21243
1440	1522	21248
1371	1518	21253
1363	1585	21257
1371	1554	21262
1429	1459	21267
1518	1439	21271
1536	1449	21276
1440	1473	21281
1400	1482	21285
1446	1517	21291
1503	1514	21296
1561	1517	21300
1591	1524	21305
1597	1514	21309
1510	1478	21314
1280	1450	21319
1172	1428	21323
1269	1460	21328
1447	1520	21334
1583	1586	21338
1618	1485	21343
1576	1465	21347
1478	1469	21352
1430	1399	21357
1496	1404	21361
1585	1440	21366
1643	1506	21371
1670	1471	21376
1664	1456	21381
1631	1445	21385
1506	1477	21390
1383	1452	21395
1380	1449	21399
1490	1464	21404
1573	1453	21409
1599	1397	21413
1600	1359	21419
1643	1365	21424
1688	1397	21428
1714	1406	21433
1743	1412	21437
1776	1424	21442
1807	1440	21447
1822	1461	21451
1820	1447	21456
1798	1452	21462
1742	1485	21466
1715	1539	21471
1700	1527	21475
1701	1493	21480
1663	1504	21485
1529	1557	21489
1397	1502	21494
1404	1475	21499
1467	1502	21504
1542	1455	21509
1619	1418	21513
1659	1407	21518
1645	1401	21523
1614	1525	21527
1544	1500	21532
1487	1413	21537
1491	1386	21541
1477	1538	21547
1461	1491	21552
1455	1463	21556
1458	1413	21561
1416	1390	21565
1263	1412	21570
1218	1462	21575
1308	1413	21579
1473	1357	21584
1561	1344	21590
1577	1348	21594
1592	1345	21599
1578	1379	21603
1506	1444	21608
1447	1433	21613
1458	1430	21617
1479	1419	21622
1462	1419	21627
1421	1434	21632
1405	1458	21637
1397	1513	21641
1394	1495	21646
1389	1518	21651
1331	1502	21655
1268	1481	21660
1329	1482	21665
1428	1485	21669
1486	1497	21675
1506	1519	21680
1509	1548	21684
1509	1554	21689
1510	1569	21693
1501	1617	21698
1471	1507	21703
1423	1448	21707
1359	1452	21712
1354	1447	21718
1398	1488	21722
1421	1509	21727
1442	1482	21731
1473	1445	21736
1493	1417	21741
1510	1414	21745
1525	1422	21750
1529	1435	21755
