1553	1620	4
1545	1659	9
1500	1681	13
1480	1626	18
1509	1596	22
1544	1578	27
1584	1640	31
1599	1576	36
1595	1572	40
1584	1592	45
1572	1604	50
1559	1599	54
1542	1580	59
1520	1543	63
1485	1531	68
1476	1558	72
1508	1548	77
1517	1541	81
1546	1536	87
1590	1540	91
1616	1561	96
1615	1572	100
1602	1615	105
1587	1595	109
1575	1590	114
1567	1615	118
1556	1638	123
1543	1559	128
1524	1534	133
1472	1525	137
1456	1545	142
1470	1636	147
1510	1675	151
1584	1593	156
1579	1531	160
1549	1502	165
1538	1497	169
1550	1506	175
1580	1518	179
1607	1525	184
1611	1548	188
1605	1541	193
1594	1549	197
1582	1571	202
1561	1558	206
1544	1568	211
1548	1626	216
1545	1654	221
1535	1627	226
1501	1562	230
1463	1567	235
1517	1523	239
1616	1524	244
1622	1580	248
1611	1599	253
1635	1544	258
1674	1502	263
1714	1493	267
1736	1499	272
1738	1498	276
1729	1513	281
1710	1528	285
1672	1563	290
1628	1574	294
1576	1560	300
1543	1561	305
1506	1583	309
1476	1666	314
1528	1581	318
1585	1546	323
1608	1556	327
1605	1680	332
1603	1615	336
1596	1556	342
1584	1538	346
1561	1532	351
1539	1499	355
1524	1479	360
1493	1483	364
1437	1498	369
1380	1510	373
1414	1594	378
1492	1584	382
1530	1557	388
1482	1519	393
1388	1589	397
1412	1565	402
1476	1555	406
1520	1553	411
1529	1489	415
1526	1471	420
1518	1471	424
1511	1490	430
1507	1534	434
1503	1546	439
1506	1536	443
1498	1536	448
1415	1542	452
1322	1564	457
1333	1611	461
1411	1589	466
1503	1633	472
1539	1592	476
1530	1554	481
1514	1530	485
1499	1562	490
1497	1549	494
1509	1566	499
1516	1542	503
1517	1525	508
1515	1520	513
1518	1523	518
1528	1530	522
1487	1565	527
1425	1624	531
1442	1608	536
1505	1583	540
1531	1555	545
1461	1562	550
1432	1596	555
1490	1592	560
1543	1552	564
1566	1524	569
1565	1533	573
1539	1644	578
1531	1547	582
1538	1506	587
1549	1485	591
1555	1483	596
1520	1502	601
1454	1560	606
1489	1518	610
1549	1500	615
1574	1495	619
1564	1502	624
1512	1538	629
1447	1610	633
1472	1586	638
1537	1557	643
1557	1550	648
1546	1590	652
1506	1566	657
1473	1543	661
1489	1515	666
1520	1507	670
1529	1502	675
1502	1515	679
1485	1517	685
1458	1561	689
1436	1614	694
1503	1577	699
1572	1542	703
1598	1532	708
1571	1511	712
1546	1539	717
1564	1565	721
1594	1531	727
1600	1509	731
1577	1526	736
1462	1576	740
1327	1585	745
1361	1550	749
1497	1505	754
1590	1478	758
1599	1496	763
1597	1520	768
1645	1508	773
1714	1477	778
1752	1466	782
1743	1470	787
1716	1481	791
1686	1498	796
1679	1504	800
1683	1510	805
1666	1602	809
1619	1722	815
1525	1662	819
1482	1571	824
1504	1507	828
1510	1502	833
1458	1553	837
1472	1608	842
1524	1508	846
1543	1460	851
1579	1436	856
1583	1435	861
1530	1453	866
1434	1472	870
1421	1482	875
1485	1479	879
1507	1492	884
1424	1597	888
1387	1570	893
1464	1523	898
1532	1490	903
1497	1545	907
1361	1766	912
1419	1796	916
1562	1706	921
1562	1590	925
1462	1544	930
1372	1530	934
1310	1522	940
1215	1476	945
1268	1434	949
1439	1395	954
1521	1385	958
1466	1398	963
1333	1484	967
1338	1671	972
1469	1540	976
1583	1482	982
1633	1422	986
1627	1404	991
1537	1515	995
1467	1670	1000
1480	1712	1004
1551	1644	1009
1652	1555	1014
1629	1472	1018
1423	1483	1024
1332	1663	1028
1467	1492	1033
1594	1428	1038
1633	1380	1042
1618	1373	1047
1507	1403	1051
1330	1495	1056
1441	1462	1060
1667	1436	1065
1694	1428	1071
1523	1453	1075
1400	1637	1080
1561	1717	1084
1659	1605	1089
1693	1510	1093
1597	1560	1098
1490	1789	1103
1557	1792	1107
1602	1658	1113
1596	1534	1117
1530	1504	1122
1438	1616	1127
1421	1545	1131
1470	1457	1136
1528	1402	1140
1555	1393	1145
1525	1425	1149
1477	1482	1155
1506	1444	1160
1471	1450	1164
1432	1465	1169
1580	1529	1173
1565	1615	1178
1530	1698	1182
1655	1630	1187
1686	1591	1192
1483	1594	1197
1314	1779	1202
1531	1666	1206
1707	1552	1211
1713	1446	1216
1654	1404	1220
1587	1392	1225
1513	1397	1229
1468	1413	1234
1496	1461	1239
1576	1454	1244
1596	1465	1249
1528	1498	1253
1483	1644	1258
1559	1799	1262
1633	1755	1267
1622	1719	1272
1590	1805	1276
1574	1663	1282
1690	1522	1286
1724	1463	1291
1638	1499	1295
1652	1622	1300
1743	1565	1305
1764	1458	1309
1714	1409	1314
1640	1433	1318
1484	1560	1324
1418	1750	1328
1452	1603	1333
1498	1490	1338
1496	1413	1342
1391	1451	1347
1362	1721	1351
1471	1692	1356
1670	1512	1361
1781	1438	1366
1730	1434	1371
1501	1451	1375
1398	1501	1380
1502	1618	1384
1496	1578	1389
1429	1518	1394
1307	1478	1398
1239	1475	1403
1318	1625	1408
1399	1794	1413
1448	1713	1417
1453	1637	1422
1482	1599	1427
1513	1522	1431
1525	1460	1436
1425	1549	1440
1338	1603	1445
1477	1497	1451
1576	1434	1455
1558	1423	1460
1356	1559	1464
1360	1678	1469
1463	1555	1473
1422	1445	1478
1315	1434	1483
1275	1565	1487
1401	1850	1492
1561	1810	1497
1554	1626	1502
1493	1614	1506
1439	1546	1511
1422	1499	1516
1423	1410	1520
1424	1389	1525
1363	1425	1529
1260	1446	1534
1260	1446	1540
1414	1491	1544
1578	1443	1549
1623	1388	1553
1600	1372	1558
1543	1496	1562
1552	1743	1567
1537	1869	1572
1546	1729	1576
1576	1598	1582
1557	1555	1586
1461	1529	1591
1333	1879	1595
1379	1745	1600
1466	1488	1605
1480	1389	1609
1457	1344	1614
1433	1325	1618
1433	1389	1624
1491	1542	1629
1520	1471	1633
1484	1371	1638
1517	1329	1642
1582	1329	1647
1480	1414	1651
1390	1776	1656
1466	1795	1661
1526	1642	1666
1540	1569	1671
1562	1588	1675
1563	1679	1680
1534	1717	1684
1480	1649	1689
1434	1624	1694
1362	1696	1698
1387	1657	1703
1529	1514	1708
1595	1463	1713
1548	1568	1718
1481	1686	1722
1487	1545	1727
1529	1465	1731
1570	1442	1736
1620	1456	1740
1533	1538	1745
1459	1608	1751
1494	1552	1755
1522	1582	1760
1523	1869	1764
1468	2047	1769
1512	1890	1773
1651	1650	1778
1718	1530	1783
1685	1596	1787
1621	1839	1793
1602	1787	1797
1672	1583	1802
1696	1482	1807
1659	1480	1811
1649	1561	1816
1621	1600	1820
1534	1567	1825
1415	1572	1829
1417	1600	1835
1531	1610	1840
1534	1739	1844
1431	1788	1849
1419	1851	1853
1481	1870	1858
1544	1633	1862
1484	1535	1867
1485	1644	1872
1669	1742	1876
1732	1588	1882
1631	1504	1886
1490	1547	1891
1440	1625	1896
1470	1618	1900
1471	1630	1905
1453	1659	1909
1416	1611	1914
1327	1676	1918
1310	1789	1924
1378	1724	1929
1394	1590	1933
1283	1554	1938
1246	1565	1942
1395	1597	1947
1482	1626	1951
1515	1571	1956
1512	1566	1961
1522	1665	1966
1492	1831	1971
1488	1866	1975
1483	1901	1980
1454	1954	1985
1421	1898	1989
1405	1858	1994
1395	1844	1998
1390	1700	2003
1346	1635	2008
1275	1894	2013
1292	1770	2018
1321	1490	2022
1350	1399	2027
1384	1387	2031
1410	1405	2036
1434	1444	2040
1482	1432	2045
1561	1436	2051
1577	1535	2055
1555	1870	2060
1527	1994	2064
1504	1823	2069
1476	1623	2074
1455	1504	2078
1513	1505	2083
1530	1768	2087
1478	1891	2093
1449	1632	2097
1412	1481	2102
1390	1437	2107
1415	1412	2111
1484	1403	2116
1575	1484	2120
1609	1710	2125
1562	1567	2129
1469	1515	2135
1444	1527	2140
1481	1607	2144
1500	1662	2149
1495	1702	2153
1482	1614	2158
1450	1526	2163
1380	1524	2167
1366	1574	2172
1453	1609	2177
1480	1587	2182
1457	1621	2186
1508	1711	2191
1569	1744	2196
1587	1678	2200
1567	1786	2205
1539	1928	2209
1576	1769	2214
1595	1654	2219
1592	1737	2224
1581	1631	2229
1577	1504	2233
1567	1446	2238
1549	1433	2242
1516	1470	2247
1439	1549	2252
1366	1569	2256
1349	1539	2262
1336	1538	2266
1402	1546	2271
1518	1637	2275
1552	1783	2280
1611	1850	2285
1784	2047	2289
1887	1988	2294
1926	1719	2298
1894	1662	2304
1817	1895	2308
1740	1790	2313
1686	1642	2318
1640	1708	2322
1609	1530	2327
1596	1400	2331
1585	1388	2336
1568	1402	2341
1524	1408	2345
1422	1428	2351
1344	1447	2355
1391	1461	2360
1509	1470	2364
1562	1513	2369
1522	1665	2374
1423	1841	2378
1393	1884	2383
1462	1895	2387
1508	1801	2393
1501	1715	2397
1432	1669	2402
1316	1776	2407
1342	1657	2411
1452	1480	2416
1519	1494	2420
1520	1522	2425
1438	1452	2430
1334	1431	2435
1385	1424	2440
1463	1432	2444
1448	1490	2449
1401	1712	2453
1416	1690	2458
1433	1672	2463
1430	1735	2467
1410	1759	2472
1379	1809	2477
1307	1679	2482
1239	1510	2486
1283	1599	2491
1383	1730	2496
1434	1505	2500
1397	1405	2505
1368	1388	2509
1421	1410	2514
1482	1410	2520
1555	1427	2524
1580	1490	2529
1552	1812	2533
1526	1853	2538
1498	1777	2542
1476	1758	2547
1458	1573	2552
1462	1521	2556
1408	1463	2562
1265	1436	2566
1296	1399	2571
1424	1424	2575
1461	1409	2580
1456	1491	2585
1457	1500	2589
1540	1438	2594
1579	1660	2598
1586	1805	2604
1609	1696	2609
1581	1862	2613
1571	1634	2618
1578	1483	2622
1574	1606	2627
1567	1694	2631
1549	1763	2636
1459	1518	2641
1303	1352	2646
1372	1309	2651
1549	1400	2655
1617	1450	2660
1652	1406	2665
1657	1527	2669
1620	1747	2674
1552	1733	2678
1525	1622	2683
1557	1746	2688
1625	1791	2693
1633	1623	2698
1536	1550	2702
1449	1525	2707
1471	1403	2711
1520	1514	2716
1477	1593	2720
1496	1423	2725
1560	1336	2731
1578	1525	2735
1616	1887	2740
1618	1612	2744
1601	1315	2749
1507	1292	2754
1481	1505	2758
1600	1598	2763
1661	1633	2767
1612	1376	2772
1542	1325	2777
1511	1394	2782
1515	1410	2787
1499	1624	2791
1571	1550	2796
1618	1339	2800
1640	1320	2805
1669	1588	2809
1787	1610	2814
1824	1415	2820
1791	1292	2824
1798	1296	2829
1795	1661	2833
1756	1541	2838
1735	1504	2843
1775	1529	2847
1793	1341	2852
1648	1244	2856
1448	1220	2862
1462	1265	2866
1552	1632	2871
1593	1677	2876
1591	1366	2880
1485	1284	2885
1297	1421	2889
1373	1459	2894
1609	1385	2898
1707	1353	2904
1696	1366	2909
1634	1392	2913
1479	1423	2918
1312	1537	2922
1354	1594	2927
1493	1310	2932
1526	1328	2936
1474	1293	2941
1379	1474	2946
1342	1696	2951
1498	1286	2955
1477	1171	2960
1434	1180	2965
1465	1241	2969
1428	1377	2974
1406	1244	2978
1438	1273	2983
1414	1318	2988
1389	1190	2993
1373	1309	2998
1427	1415	3002
1469	1503	3007
1425	1363	3011
1440	1159	3016
1445	1208	3021
1480	1367	3025
1500	1185	3031
1455	1267	3035
1463	1313	3040
1516	1187	3044
1526	1145	3049
1495	1376	3054
1403	1303	3058
1344	1150	3063
1298	1109	3067
1333	1121	3073
1462	1160	3077
1517	1289	3082
1558	1283	3087
1571	1150	3091
1418	1076	3096
1340	1189	3100
1406	1242	3105
1544	1177	3110
1634	1193	3115
1614	1059	3120
1569	1063	3124
1530	1062	3129
1550	1084	3133
1618	1224	3138
1560	1264	3143
1482	1100	3147
1412	1036	3152
1462	1031	3156
1539	1256	3162
1591	1353	3166
1570	1329	3171
1506	1076	3176
1422	1004	3180
1377	1010	3185
1308	1241	3189
1351	1159	3194
1511	1190	3200
1606	1085	3204
1666	1015	3209
1666	1033	3213
1546	1173	3218
1364	1264	3222
1410	1253	3227
1573	1065	3232
1518	1022	3236
1420	1090	3241
1395	1176	3246
1432	1225	3251
1503	1152	3256
1559	1072	3260
1532	1052	3265
1510	1066	3269
1498	1139	3274
1510	1282	3278
1507	1327	3283
1566	1209	3289
1570	1185	3293
1496	1402	3298
1482	1275	3302
1464	1211	3307
1415	1245	3311
1510	1211	3316
1478	1377	3321
1419	1328	3325
1451	1223	3331
1511	1306	3335
1541	1235	3340
1543	1216	3345
1586	1274	3349
1656	1231	3354
1689	1239	3358
1697	1282	3363
1673	1316	3367
1640	1441	3373
1713	1511	3378
1842	1405	3382
1834	1386	3387
1669	1329	3391
1496	1384	3396
1437	1361	3400
1502	1256	3405
1579	1226	3410
1573	1251	3415
1517	1336	3420
1493	1289	3424
1467	1427	3429
1447	1421	3434
1515	1356	3438
1549	1321	3443
1483	1292	3447
1429	1324	3452
1490	1336	3457
1538	1346	3462
1481	1425	3467
1352	1415	3471
1298	1387	3476
1227	1484	3480
1176	1438	3485
1285	1392	3489
1428	1312	3494
1493	1288	3500
1490	1306	3504
1465	1352	3509
1455	1340	3513
1446	1386	3518
1439	1379	3523
1460	1420	3527
1442	1469	3532
1410	1519	3536
1360	1557	3542
1216	1451	3546
1041	1389	3551
1107	1416	3556
1344	1450	3560
1447	1366	3565
1458	1324	3569
1459	1307	3574
1412	1325	3578
1404	1414	3584
1473	1377	3589
1494	1421	3593
1465	1447	3598
1449	1530	3602
1450	1464	3607
1446	1400	3612
1430	1378	3616
1402	1397	3621
1359	1504	3625
1166	1467	3631
1163	1404	3635
1383	1404	3640
1516	1454	3645
1586	1366	3649
1660	1353	3654
1706	1369	3658
1681	1430	3663
1617	1408	3668
1565	1430	3673
1528	1343	3678
1506	1336	3682
1491	1400	3687
1487	1514	3691
1493	1404	3696
1493	1352	3701
1489	1332	3705
1346	1351	3710
1182	1472	3715
1296	1599	3720
1476	1466	3724
1570	1383	3729
1526	1392	3734
1489	1503	3738
1562	1452	3743
1609	1358	3747
1590	1341	3752
1557	1366	3758
1522	1358	3762
1528	1364	3767
1539	1383	3771
1528	1403	3776
1509	1416	3780
1488	1429	3785
1427	1448	3790
1286	1518	3794
1319	1644	3800
1498	1682	3804
1574	1558	3809
1489	1529	3813
1400	1556	3818
1533	1486	3823
1683	1429	3827
1698	1381	3832
1640	1371	3836
1575	1386	3842
1535	1418	3847
1517	1421	3851
1515	1421	3856
1535	1432	3860
1554	1446	3865
1582	1506	3869
1614	1569	3874
1613	1542	3879
1621	1505	3884
1682	1465	3889
1709	1502	3893
1717	1582	3898
1712	1557	3902
1733	1544	3907
1709	1465	3912
1635	1434	3916
1550	1438	3921
1540	1515	3926
1567	1435	3931
1582	1390	3936
1565	1373	3940
1546	1381	3945
1532	1400	3949
1518	1433	3954
1502	1444	3958
1488	1456	3963
1478	1471	3969
1494	1541	3973
1492	1581	3978
1464	1542	3982
1376	1545	3987
1329	1651	3992
1418	1616	3996
1498	1501	4001
1468	1472	4005
1369	1493	4011
1351	1489	4015
1422	1478	4020
1440	1449	4025
1434	1436	4029
1426	1440	4034
1421	1452	4038
1421	1466	4043
1418	1480	4047
1411	1493	4052
1406	1511	4058
1395	1605	4062
1347	1627	4067
1297	1592	4071
1276	1614	4076
1291	1573	4081
1384	1607	4085
1478	1536	4090
1468	1472	4094
1416	1438	4100
1419	1440	4104
1435	1445	4109
1435	1438	4114
1434	1447	4118
1438	1498	4123
1445	1578	4127
1468	1514	4132
1436	1514	4136
1365	1649	4142
1405	1513	4147
1464	1448	4151
1462	1431	4156
1395	1484	4160
1323	1664	4165
1428	1580	4170
1531	1449	4174
1552	1387	4179
1550	1373	4184
1507	1386	4189
1474	1411	4193
1485	1441	4198
1386	1481	4203
1351	1492	4207
1458	1517	4212
1513	1489	4216
1528	1464	4221
1551	1460	4226
1481	1491	4231
1439	1595	4236
1502	1698	4240
1571	1573	4245
1581	1484	4249
1436	1501	4254
1254	1586	4259
1297	1590	4263
1468	1517	4269
1584	1501	4273
1557	1428	4278
1515	1404	4282
1637	1411	4287
1709	1407	4292
1685	1414	4296
1635	1429	4301
1598	1447	4305
1571	1460	4311
1540	1480	4315
1468	1548	4320
1339	1653	4325
1316	1725	4329
1394	1651	4334
1479	1602	4338
1491	1528	4343
1500	1512	4348
1559	1667	4353
1592	1662	4358
1620	1590	4362
1685	1503	4367
1638	1407	4371
1498	1403	4376
1510	1411	4381
1615	1397	4385
1574	1388	4390
1507	1411	4395
1555	1475	4400
1701	1455	4404
1753	1447	4409
1757	1452	4414
1736	1497	4418
1689	1666	4423
1684	1738	4427
1699	1656	4432
1701	1566	4438
1636	1469	4442
1380	1436	4447
1313	1505	4451
1528	1662	4456
1672	1602	4460
1673	1457	4465
1598	1413	4470
1427	1441	4474
1324	1455	4480
1465	1540	4484
1572	1505	4489
1575	1569	4494
1455	1510	4498
1321	1459	4503
1392	1436	4507
1508	1480	4512
1570	1621	4516
1567	1629	4521
1498	1543	4527
1484	1505	4531
1490	1579	4536
1431	1774	4540
1453	1581	4545
1491	1481	4549
1493	1433	4554
1489	1418	4559
1415	1452	4563
1376	1552	4569
1294	1557	4573
1201	1538	4578
1279	1515	4583
1427	1505	4587
1509	1445	4592
1507	1437	4596
1410	1478	4601
1287	1554	4605
1333	1666	4611
1445	1535	4616
1479	1484	4620
1339	1530	4625
1243	1520	4629
1319	1521	4634
1450	1595	4638
1570	1602	4643
1590	1592	4648
1565	1718	4653
1572	1656	4658
1585	1545	4662
1484	1477	4667
1400	1501	4672
1385	1502	4676
1429	1576	4681
1470	1638	4685
1389	1666	4690
1364	1691	4695
1403	1544	4700
1465	1422	4705
1487	1389	4709
1436	1393	4714
1369	1426	4718
1449	1507	4723
1608	1465	4727
1681	1453	4732
1690	1457	4738
1577	1474	4742
1392	1669	4747
1398	1822	4751
1513	1603	4756
1552	1600	4761
1521	1717	4765
1506	1587	4770
1476	1584	4774
1436	1620	4780
1417	1497	4784
1431	1437	4789
1426	1458	4794
1450	1455	4798
1517	1406	4803
1532	1391	4807
1510	1403	4812
1417	1471	4817
1402	1458	4822
1590	1438	4827
1620	1443	4831
1517	1511	4836
1455	1632	4840
1492	1533	4845
1486	1537	4850
1411	1591	4854
1414	1777	4859
1420	1942	4864
1366	1785	4869
1473	1533	4873
1651	1399	4878
1733	1355	4883
1722	1374	4887
1581	1377	4892
1382	1394	4896
1410	1401	4901
1618	1416	4907
1693	1461	4911
1665	1549	4916
1609	1465	4920
1617	1531	4925
1671	1674	4929
1670	1841	4934
1564	1834	4939
1478	1739	4943
1576	1616	4948
1688	1535	4953
1729	1395	4958
1682	1429	4962
1640	1490	4967
1608	1371	4972
1517	1333	4976
1515	1340	4981
1632	1364	4985
1660	1360	4990
1611	1367	4996
1573	1383	5000
1543	1409	5005
1487	1478	5009
1444	1626	5014
1423	1756	5018
1396	1726	5023
1304	1642	5028
1192	1663	5032
1197	1591	5038
1266	1572	5042
1435	1559	5047
1594	1433	5052
1614	1404	5056
1565	1421	5061
1544	1584	5065
1540	1484	5070
1479	1415	5074
1407	1429	5080
1378	1586	5085
1396	1539	5089
1348	1494	5094
1333	1496	5098
1389	1460	5103
1423	1490	5107
1418	1585	5112
1398	1563	5117
1403	1538	5122
1390	1637	5127
1410	1598	5131
1358	1493	5136
1318	1495	5141
1566	1654	5145
1695	1559	5150
1658	1411	5154
1500	1370	5159
1314	1552	5164
1284	1781	5169
1389	1652	5174
1448	1462	5178
1458	1433	5183
1473	1532	5187
1486	1620	5192
1488	1662	5196
1487	1573	5201
1394	1440	5207
1358	1403	5211
1470	1392	5216
1540	1397	5220
1507	1425	5225
1416	1479	5230
1427	1653	5234
1506	1592	5239
1530	1463	5243
1512	1417	5249
1552	1480	5253
1566	1670	5258
1488	1853	5263
1428	1916	5267
1446	1701	5272
1465	1740	5276
1473	1694	5281
1463	1537	5285
1431	1582	5291
1407	1404	5296
1435	1344	5300
1413	1345	5305
1343	1376	5309
1399	1405	5314
1454	1422	5319
1561	1436	5323
1608	1441	5328
1562	1514	5332
1566	1703	5338
1595	1742	5342
1530	1749	5347
1492	1742	5352
1504	1760	5356
1521	1732	5361
1527	1635	5365
1542	1772	5370
1536	1643	5376
1529	1496	5380
1577	1416	5385
1540	1393	5389
1404	1411	5394
1414	1434	5398
1511	1450	5403
1524	1469	5408
1496	1492	5412
1516	1515	5417
1657	1535	5422
1793	1605	5427
1790	1709	5431
1742	1819	5436
1688	1934	5441
1646	1863	5445
1611	1801	5450
1582	1703	5454
1566	1528	5459
1565	1446	5465
1572	1466	5469
1556	1588	5474
1443	1504	5478
1393	1472	5483
1526	1458	5487
1623	1467	5492
1587	1581	5497
1474	1614	5501
1416	1723	5507
1480	1761	5511
1505	1728	5516
1456	1953	5520
1414	1778	5525
1439	1523	5530
1446	1527	5534
1462	1612	5539
1474	1522	5543
1470	1427	5549
1384	1420	5554
1319	1442	5558
1452	1491	5563
1645	1475	5567
1660	1476	5572
1492	1498	5576
1349	1534	5581
1422	1686	5586
1477	1846	5591
1463	1955	5596
1438	1924	5600
1430	1741	5605
1427	1706	5609
1412	1674	5614
1395	1576	5619
1414	1500	5623
1460	1416	5628
1490	1395	5633
1395	1401	5638
1239	1431	5643
1296	1459	5647
1442	1475	5652
1496	1500	5656
1517	1507	5661
1509	1537	5665
1495	1754	5670
1491	2047	5676
1441	2047	5680
1391	1800	5685
1410	1652	5689
1402	1513	5694
1393	1536	5699
1427	1786	5703
1508	1728	5708
1570	1482	5712
1543	1409	5718
1461	1398	5722
1418	1415	5727
1407	1435	5732
1457	1458	5736
1538	1508	5741
1543	1633	5745
1541	1745	5750
1535	1867	5754
1511	2016	5760
1482	1868	5765
1456	1623	5769
1440	1561	5774
1428	1662	5778
1394	1659	5783
1325	1582	5788
1358	1586	5792
1470	1538	5797
1485	1502	5801
1464	1507	5807
1539	1524	5811
1565	1597	5816
1440	1680	5821
1381	1727	5825
1495	1919	5830
1569	1992	5834
1564	1886	5839
1537	1741	5843
1512	1767	5849
1497	1664	5854
1492	1499	5858
1508	1444	5863
1514	1440	5867
1402	1496	5872
1316	1534	5877
1388	1507	5881
1521	1506	5886
1571	1522	5891
1611	1568	5896
1647	1638	5900
1604	1736	5905
1518	2047	5910
1516	2047	5914
1562	1765	5919
1621	1593	5923
1652	1772	5928
1673	1691	5934
1676	1595	5938
1700	1645	5943
1703	1490	5947
1637	1482	5952
1591	1480	5956
1576	1411	5961
1532	1400	5966
1441	1408	5970
1475	1421	5976
1607	1484	5980
1661	1687	5985
1651	1703	5989
1603	1689	5994
1564	1645	5999
1520	1617	6003
1460	1634	6008
1387	1734	6012
1377	1710	6018
1397	1673	6023
1333	1747	6027
1201	1582	6032
1206	1460	6036
1297	1454	6041
1465	1441	6045
1586	1390	6050
1638	1385	6055
1639	1395	6060
1532	1426	6065
1402	1602	6069
1391	1632	6074
1438	1764	6078
1455	1960	6083
1470	1663	6088
1474	1536	6092
1477	1638	6097
1487	1588	6102
1494	1426	6107
1450	1372	6112
1370	1373	6116
1336	1426	6121
1385	1444	6125
1430	1413	6130
1490	1416	6134
1525	1506	6139
1588	1670	6145
1603	1552	6149
1560	1455	6154
1514	1605	6158
1479	1881	6163
1453	1845	6167
1438	1533	6172
1437	1413	6177
1437	1410	6181
1438	1569	6187
1426	1671	6191
1381	1523	6196
1357	1446	6201
1384	1456	6205
1448	1422	6210
1429	1405	6214
1481	1414	6219
1564	1412	6223
1552	1583	6228
1449	1971	6234
1434	1729	6238
1467	1524	6243
1487	1424	6247
1487	1400	6252
1477	1539	6256
1468	1644	6261
1461	1486	6266
1445	1410	6270
1386	1444	6276
1343	1427	6280
1320	1484	6285
1376	1593	6290
1476	1493	6294
1430	1634	6299
1436	1811	6303
1565	1554	6308
1635	1452	6312
1608	1499	6318
1568	1480	6323
1540	1427	6327
1523	1393	6332
1517	1389	6336
1523	1430	6341
1536	1575	6346
1539	1441	6350
1514	1388	6355
1413	1461	6360
1290	1596	6365
1293	1691	6369
1393	1816	6374
1419	1849	6379
1430	1609	6383
1535	1429	6388
1689	1401	6392
1726	1492	6397
1714	1444	6402
1690	1587	6407
1690	1702	6412
1697	1407	6416
1690	1295	6421
1690	1373	6425
1692	1492	6430
1670	1381	6435
1596	1340	6439
1523	1405	6445
1498	1463	6449
1574	1507	6454
1580	1449	6458
1470	1563	6463
1492	1707	6468
1613	1702	6472
1681	1522	6477
1615	1460	6481
1496	1772	6487
1483	1873	6491
1523	1532	6496
1532	1348	6501
1511	1481	6505
1449	1842	6510
1412	1700	6514
1401	1328	6519
1333	1249	6524
1337	1423	6529
1512	1651	6534
1633	1489	6538
1623	1341	6543
1543	1528	6547
1456	1557	6552
1490	1465	6557
1530	1691	6561
1486	1960	6566
1446	1456	6571
1439	1273	6576
1446	1533	6580
1396	1537	6585
1346	1600	6590
1473	1558	6594
1611	1243	6599
1597	1157	6603
1474	1246	6608
1468	1329	6614
1582	1220	6618
1603	1279	6623
1506	1588	6627
1428	1746	6632
1480	1414	6636
1525	1288	6641
1491	1488	6646
1440	1603	6650
1422	1317	6656
1469	1394	6660
1581	1706	6665
1653	1616	6669
1583	1340	6674
1458	1314	6679
1432	1243	6683
1478	1205	6688
1551	1578	6692
1603	1815	6697
1594	1420	6703
1471	1329	6707
1363	1369	6712
1363	1376	6716
1402	1484	6721
1440	1342	6725
1429	1441	6730
1479	1314	6735
1476	1233	6739
1376	1265	6745
1417	1463	6749
1527	1565	6754
1547	1639	6759
1543	1404	6763
1578	1496	6768
1534	1537	6772
1425	1410	6777
1502	1250	6781
1570	1246	6787
1574	1479	6792
1597	1471	6796
1648	1327	6801
1646	1597	6805
1645	1583	6810
1659	1295	6814
1609	1228	6819
1513	1486	6824
1471	1553	6829
1464	1189	6834
1456	1142	6838
1431	1176	6843
1445	1325	6848
1530	1700	6852
1629	1437	6857
1613	1227	6861
1473	1183	6866
1376	1224	6871
1388	1318	6876
1430	1573	6881
1554	1529	6885
1697	1288	6890
1777	1166	6894
1778	1312	6899
1775	1288	6903
1744	1105	6908
1749	1178	6914
1741	1388	6918
1628	1306	6923
1562	1130	6927
1632	1141	6932
1650	1225	6937
1522	1334	6941
1443	1378	6946
1525	1125	6950
1631	1114	6956
1610	1069	6960
1585	1070	6965
1520	1086	6970
1472	1230	6974
1500	1228	6979
1536	1173	6983
1596	1258	6988
1578	1402	6992
1329	1330	6998
1234	1359	7003
1358	1217	7007
1530	1181	7012
1598	1135	7016
1565	1069	7021
1503	1187	7026
1407	1190	7030
1350	1148	7035
1366	1303	7040
1433	1219	7045
1500	1121	7049
1498	1071	7054
1630	1230	7059
1626	1381	7063
1469	1225	7068
1402	1169	7072
1394	1110	7077
1384	1112	7081
1392	1417	7087
1433	1419	7092
1446	1266	7096
1308	1201	7101
1311	1294	7105
1377	1213	7110
1265	1151	7115
1164	1224	7119
1375	1216	7124
1629	1227	7129
1666	1169	7134
1583	1160	7138
1527	1183	7143
1462	1359	7148
1405	1548	7152
1461	1352	7157
1546	1270	7161
1549	1244	7166
1505	1245	7172
1481	1415	7176
1615	1481	7181
1610	1396	7185
1429	1351	7190
1384	1309	7194
1419	1368	7199
1490	1445	7204
1517	1344	7208
1339	1334	7214
1291	1278	7218
1355	1313	7223
1424	1370	7227
1522	1570	7232
1537	1439	7237
1505	1353	7241
1354	1326	7246
1191	1332	7250
1220	1412	7256
1510	1270	7261
1687	1275	7265
1655	1486	7270
1596	1283	7274
1540	1250	7279
1495	1270	7283
1452	1373	7288
1470	1389	7293
1518	1355	7298
1515	1355	7303
1507	1447	7307
1496	1383	7312
1453	1395	7316
1436	1540	7321
1464	1517	7326
1488	1437	7330
1457	1383	7335
1277	1384	7340
1328	1367	7345
1571	1414	7350
1655	1361	7354
1632	1324	7359
1588	1325	7363
1575	1351	7368
1579	1453	7372
1638	1411	7377
1711	1389	7383
1716	1394	7387
1699	1431	7392
1677	1521	7396
1660	1485	7401
1613	1598	7406
1593	1548	7410
1484	1439	7415
1339	1488	7419
1495	1554	7425
1663	1420	7429
1711	1343	7434
1660	1305	7439
1610	1311	7443
1591	1362	7448
1573	1412	7452
1536	1429	7457
1508	1438	7461
1496	1374	7467
1485	1368	7472
1467	1475	7476
1451	1461	7481
1450	1415	7485
1459	1424	7490
1442	1458	7495
1310	1529	7499
1261	1508	7504
1264	1570	7508
1303	1474	7514
1464	1444	7518
1565	1525	7523
1585	1425	7528
1533	1364	7532
1472	1328	7537
1429	1333	7541
1419	1358	7546
1409	1365	7550
1393	1421	7556
1388	1448	7561
1389	1426	7565
1388	1460	7570
1396	1571	7574
1408	1519	7579
1405	1440	7584
1280	1401	7588
1220	1465	7593
1162	1584	7598
1274	1534	7603
1418	1411	7607
1467	1301	7612
1476	1292	7617
1466	1308	7621
1443	1354	7626
1441	1419	7630
1466	1364	7635
1476	1371	7641
1474	1408	7645
1496	1468	7650
1518	1437	7654
1516	1426	7659
1510	1434	7663
1460	1473	7668
1387	1554	7673
1390	1623	7677
1373	1638	7683
1385	1524	7687
1439	1527	7692
1446	1562	7696
1463	1448	7701
1496	1368	7706
1512	1352	7710
1509	1371	7715
1506	1456	7719
1496	1444	7725
1484	1412	7730
1499	1404	7734
1514	1416	7739
1529	1432	7743
1524	1461	7748
1482	1497	7752
1367	1483	7757
1227	1535	7762
1245	1532	7767
1423	1676	7772
1565	1615	7776
1602	1482	7781
1601	1479	7785
1539	1564	7790
1519	1449	7795
1544	1381	7799
1557	1369	7804
1554	1387	7809
1544	1429	7814
1531	1416	7819
1518	1422	7823
1505	1437	7828
1497	1452	7832
1492	1476	7837
1519	1555	7841
1458	1613	7846
1362	1541	7852
1398	1628	7856
1548	1583	7861
1641	1461	7865
1645	1488	7870
1631	1580	7875
1615	1525	7879
1652	1515	7884
1726	1412	7888
1745	1343	7894
1724	1328	7898
1703	1338	7903
1685	1357	7908
1649	1381	7912
1614	1412	7917
1580	1437	7921
1556	1456	7926
1538	1471	7930
1514	1504	7936
1475	1599	7941
1492	1540	7945
1519	1531	7950
1468	1553	7954
1385	1548	7959
1407	1684	7964
1519	1636	7968
1615	1473	7973
1612	1394	7977
1467	1403	7983
1392	1456	7987
1401	1488	7992
1422	1408	7997
1435	1408	8001
1432	1420	8006
1428	1397	8010
1420	1398	8015
1419	1413	8019
1444	1438	8025
1408	1455	8030
1277	1477	8034
1253	1552	8039
1304	1592	8043
1337	1588	8048
1383	1615	8053
1400	1653	8057
1399	1622	8062
1426	1563	8067
1407	1509	8072
1401	1426	8076
1465	1442	8081
1500	1466	8086
1486	1566	8090
1457	1478	8095
1437	1395	8099
1428	1360	8104
1420	1360	8110
1426	1376	8114
1440	1404	8119
1380	1432	8123
1272	1461	8128
1223	1528	8132
1313	1638	8137
1418	1677	8142
1416	1544	8146
1420	1477	8152
1381	1537	8156
1442	1556	8161
1593	1502	8165
1622	1466	8170
1614	1444	8175
1580	1400	8179
1551	1425	8184
1540	1527	8188
1540	1515	8194
1524	1457	8199
1497	1500	8203
1428	1463	8208
1365	1463	8212
1357	1509	8217
1427	1521	8221
1531	1488	8226
1525	1465	8231
1379	1458	8236
1216	1467	8241
1306	1574	8245
1482	1594	8250
1587	1569	8254
1600	1525	8259
1575	1675	8264
1448	1813	8268
1384	1562	8273
1462	1466	8278
1539	1556	8283
1558	1404	8288
1549	1332	8292
1544	1319	8297
1548	1333	8301
1549	1361	8306
1581	1391	8310
1534	1425	8315
1452	1453	8321
1482	1473	8325
1538	1489	8330
1422	1548	8334
1328	1670	8339
1497	1672	8344
1552	1577	8348
1520	1591	8353
1646	1837	8357
1822	1635	8363
1824	1476	8367
1779	1694	8372
1706	1615	8377
1688	1436	8381
1697	1342	8386
1682	1319	8390
1708	1337	8395
1703	1337	8399
1636	1353	8404
1564	1374	8410
1514	1404	8414
1465	1437	8419
1447	1460	8423
1410	1485	8428
1259	1566	8433
1215	1808	8437
1397	1691	8442
1517	1686	8446
1503	1600	8452
1475	1643	8456
1541	1657	8461
1571	1489	8466
1499	1490	8470
1437	1629	8475
1477	1500	8479
1548	1410	8484
1588	1407	8488
1572	1352	8494
1462	1353	8499
1217	1377	8503
1145	1408	8508
1281	1430	8512
1398	1449	8517
1272	1500	8522
1189	1509	8526
1330	1616	8531
1425	1719	8536
1435	1655	8541
1502	1705	8545
1552	1677	8550
1506	1660	8555
1477	1598	8559
1456	1519	8564
1454	1485	8568
1492	1405	8573
1559	1439	8579
1445	1574	8583
1364	1424	8588
1398	1323	8592
1401	1307	8597
1365	1322	8601
1303	1351	8606
1312	1378	8611
1446	1421	8615
1566	1480	8621
1570	1495	8625
1527	1642	8630
1524	1750	8634
1532	1730	8639
1488	1689	8644
1460	1667	8648
1449	1497	8653
1399	1405	8657
1418	1377	8663
1559	1422	8668
1623	1413	8672
1602	1425	8677
1550	1416	8681
1464	1428	8686
1469	1483	8690
1519	1526	8695
1487	1474	8700
1381	1472	8705
1284	1634	8710
1300	1641	8714
1397	1647	8719
1466	1689	8723
1496	1659	8728
1450	1484	8733
1392	1395	8737
1509	1401	8742
1617	1396	8747
1593	1383	8752
1605	1394	8757
1643	1417	8761
1567	1487	8766
1500	1571	8770
1500	1530	8775
1491	1462	8779
1530	1404	8784
1552	1385	8790
1496	1397	8794
1450	1605	8799
1509	1729	8803
1577	1559	8808
1567	1533	8813
1537	1566	8817
1507	1445	8822
1456	1464	8826
1426	1643	8832
1469	1530	8836
1558	1395	8841
1657	1350	8846
1755	1364	8850
1751	1413	8855
1744	1401	8859
1772	1412	8864
1770	1470	8868
1731	1551	8873
1604	1575	8879
1428	1595	8883
1416	1693	8888
1539	1593	8892
1633	1418	8897
1630	1368	8902
1580	1392	8906
1565	1385	8911
1471	1389	8915
1370	1412	8921
1512	1411	8925
1626	1492	8930
1480	1520	8935
1378	1441	8939
1587	1412	8944
1683	1404	8948
1659	1482	8953
1586	1542	8957
1511	1505	8963
1357	1617	8968
1139	1917	8972
1186	1852	8977
1403	1525	8981
1500	1391	8986
1507	1410	8991
1426	1567	8995
1423	1557	9000
1508	1407	9005
1534	1331	9010
1505	1319	9014
1450	1336	9019
1399	1372	9024
1445	1394	9028
1592	1420	9033
1692	1459	9037
1617	1556	9042
1479	1646	9048
1381	1536	9052
1374	1478	9057
1309	1748	9061
1255	1861	9066
1343	1616	9070
1452	1505	9075
1487	1503	9080
1513	1599	9084
1567	1567	9090
1631	1539	9094
1636	1486	9099
1664	1433	9103
1721	1402	9108
1680	1408	9113
1596	1437	9117
1524	1578	9122
1509	1630	9126
1489	1572	9132
1458	1467	9137
1423	1506	9141
1318	1822	9146
1212	1917	9150
1245	1687	9155
1344	1478	9159
1404	1391	9164
1447	1375	9169
1411	1356	9174
1373	1418	9179
1506	1479	9183
1618	1416	9188
1595	1432	9192
1517	1539	9197
1434	1783	9202
1357	1696	9206
1333	1519	9211
1364	1479	9216
1373	1491	9221
1412	1461	9226
1475	1511	9230
1535	1707	9235
1583	1731	9239
1613	1669	9244
1611	1655	9248
1599	1601	9253
1562	1574	9259
1506	1646	9263
1510	1674	9268
1564	1618	9272
1587	1532	9277
1591	1681	9281
1563	1636	9286
1527	1452	9291
1484	1396	9295
1463	1394	9300
1453	1428	9305
1423	1473	9310
1275	1524	9315
1264	1499	9319
1499	1490	9324
1685	1619	9328
1751	1915	9333
1785	1793	9337
1751	1590	9342
1643	1618	9348
1578	1803	9352
1658	1858	9357
1676	1726	9361
1630	1541	9366
1576	1457	9370
1538	1557	9375
1531	1708	9380
1521	1688	9384
1512	1438	9390
1514	1369	9394
1535	1386	9399
1448	1452	9404
1343	1453	9408
1468	1493	9413
1591	1638	9417
1556	1549	9422
1473	1492	9426
1449	1653	9432
1444	1843	9437
1477	1838	9441
1514	1908	9446
1540	1748	9450
1509	1569	9455
1453	1524	9459
1356	1725	9464
1331	1746	9469
1409	1586	9474
1452	1465	9479
1455	1420	9483
1494	1439	9488
1444	1474	9493
1441	1558	9497
1466	1655	9502
1496	1537	9506
1507	1580	9511
1487	1778	9516
1492	1894	9521
1595	2017	9526
1675	1852	9530
1654	1643	9535
1539	1563	9539
1384	1612	9544
1252	1630	9549
1200	1586	9553
1081	1561	9559
1061	1629	9563
1226	1522	9568
1274	1498	9572
1248	1496	9577
1336	1518	9582
1522	1623	9586
1583	1723	9591
1543	1928	9595
1515	1985	9601
1489	1895	9605
1453	1636	9610
1409	1465	9615
1389	1455	9619
1394	1567	9624
1403	1473	9628
1431	1430	9633
1453	1435	9638
1479	1457	9643
1400	1495	9648
1382	1547	9652
1423	1573	9657
1395	1779	9661
1413	2016	9666
1461	1914	9671
1482	1732	9675
1478	1695	9680
1488	1555	9684
1536	1489	9690
1546	1495	9694
1477	1770	9699
1393	1665	9704
1409	1427	9708
1489	1338	9713
1533	1330	9717
1456	1348	9722
1324	1380	9728
1335	1446	9732
1441	1618	9737
1518	1752	9741
1548	1705	9746
1536	1628	9750
1479	1815	9755
1419	1917	9760
1438	1577	9764
1487	1405	9769
1520	1386	9774
1568	1359	9779
1645	1344	9784
1710	1390	9788
1689	1468	9793
1576	1477	9797
1617	1473	9802
1695	1489	9806
1677	1475	9811
1652	1480	9817
1654	1612	9821
1590	2047	9826
1546	2026	9830
1557	1641	9835
1550	1483	9839
1529	1450	9844
1534	1453	9849
1496	1662	9853
1403	1912	9859
1409	1645	9863
1587	1382	9868
1707	1308	9873
1732	1339	9877
1675	1323	9882
1648	1309	9886
1604	1316	9891
1533	1336	9895
1463	1377	9901
1432	1551	9906
1433	1514	9910
1430	1420	9915
1415	1464	9919
1399	1714	9924
1437	1919	9928
1518	1784	9933
1571	1519	9938
1536	1486	9943
1370	1578	9948
1336	1527	9952
1410	1463	9957
1465	1435	9962
1476	1396	9966
1474	1349	9971
1473	1347	9975
1473	1365	9980
1516	1395	9985
1525	1485	9990
1497	1682	9995
1418	1722	9999
1311	1529	10004
1238	1432	10008
1321	1445	10013
1435	1472	10018
1449	1438	10022
1454	1571	10028
1536	1896	10033
1581	1964	10037
1575	1613	10042
1542	1417	10046
1464	1480	10051
1365	1609	10056
1348	1457	10060
1432	1321	10065
1500	1302	10071
1527	1371	10075
1524	1510	10080
1451	1585	10084
1463	1517	10089
1552	1468	10094
1624	1384	10098
1602	1362	10103
1556	1415	10108
1437	1567	10113
1323	1647	10118
1366	1650	10122
1466	1498	10127
1512	1542	10132
1508	1685	10136
1503	1619	10141
1506	1463	10146
1500	1396	10150
1495	1520	10156
1484	1642	10161
1473	1445	10165
1473	1325	10170
1465	1298	10174
1396	1310	10179
1369	1330	10184
1454	1362	10188
1530	1400	10193
1561	1442	10199
1504	1555	10203
1483	1630	10208
1509	1719	10212
1526	1831	10217
1537	1604	10222
1536	1461	10226
1525	1514	10231
1505	1490	10236
1489	1409	10241
1488	1477	10246
1429	1457	10251
1437	1430	10255
1486	1589	10260
1541	1681	10264
1611	1455	10269
1672	1347	10274
1711	1416	10278
1690	1588	10284
1728	1534	10289
1755	1578	10293
1731	1658	10298
1702	1622	10302
1680	1484	10307
1655	1305	10312
1627	1263	10316
1597	1265	10321
1576	1290	10327
1565	1313	10331
1562	1338	10336
1525	1391	10340
1451	1506	10345
1404	1661	10350
1425	1580	10354
1478	1483	10359
1546	1537	10364
1595	1863	10369
1522	2034	10374
1489	1762	10378
1491	1493	10383
1500	1479	10388
1478	1591	10392
1434	1382	10397
1419	1224	10402
1445	1202	10406
1459	1217	10412
1467	1251	10417
1453	1279	10421
1382	1312	10426
1357	1346	10430
1394	1398	10435
1420	1644	10440
1471	1824	10444
1502	1667	10449
1473	1589	10455
1371	1846	10459
1356	1834	10464
1526	1592	10468
1609	1704	10473
1557	1946	10478
1496	1529	10482
1469	1230	10487
1476	1375	10492
1513	1727	10497
1509	1449	10502
1419	1190	10506
1318	1142	10511
1369	1151	10516
1462	1215	10520
1559	1295	10525
1539	1505	10530
1440	1772	10534
1394	1604	10540
1496	1415	10545
1633	1399	10549
1748	1447	10554
1766	1391	10558
1712	1386	10563
1568	1688	10568
1389	1713	10572
1251	1483	10577
1331	1247	10583
1540	1411	10587
1650	1724	10592
1699	1541	10596
1610	1248	10601
1480	1569	10606
1434	1894	10610
1578	1387	10615
1626	1132	10620
1596	1285	10625
1565	1666	10630
1593	1357	10634
1605	1147	10639
1615	1134	10644
1625	1224	10648
1522	1359	10653
1511	1636	10658
1602	1514	10662
1572	1389	10668
1545	1374	10673
1620	1379	10677
1674	1522	10682
1647	1768	10686
1524	1714	10691
1493	1471	10696
1561	1294	10700
1640	1220	10705
1668	1285	10711
1632	1637	10715
1589	1740	10720
1477	1485	10724
1335	1492	10729
1361	1452	10734
1536	1584	10738
1608	1686	10743
1582	1291	10748
1597	1365	10753
1678	1484	10758
1805	1269	10762
1724	1383	10767
1580	1568	10772
1545	1445	10776
1561	1432	10781
1608	1348	10786
1613	1499	10790
1643	1719	10796
1728	1427	10801
1729	1261	10805
1626	1281	10810
1531	1418	10814
1522	1358	10819
1532	1251	10824
1575	1378	10828
1568	1556	10833
1459	1554	10839
1412	1607	10843
1453	1594	10848
1486	1308	10852
1446	1253	10857
1440	1246	10862
1399	1236	10866
1359	1310	10871
1395	1642	10876
1538	1569	10881
1682	1250	10886
1651	1285	10890
1551	1238	10895
1366	1194	10900
1335	1396	10904
1501	1506	10909
1604	1495	10914
1605	1410	10918
1457	1488	10924
1310	1577	10928
1347	1377	10933
1400	1323	10938
1393	1420	10942
1461	1388	10947
1610	1596	10952
1642	1342	10956
1550	1189	10961
1233	1433	10967
1069	1601	10971
1226	1262	10976
1452	1159	10980
1492	1128	10985
1509	1189	10990
1631	1393	10994
1592	1309	10999
1413	1385	11004
1378	1248	11009
1531	1287	11014
1558	1507	11018
1515	1221	11023
1573	1177	11028
1658	1321	11032
1757	1270	11037
1699	1166	11042
1579	1287	11046
1479	1369	11052
1275	1240	11057
1140	1297	11061
1213	1263	11066
1353	1453	11070
1389	1528	11075
1361	1232	11080
1311	1136	11084
1163	1222	11089
1263	1327	11095
1511	1262	11099
1577	1233	11104
1466	1368	11108
1333	1479	11113
1294	1301	11118
1417	1195	11122
1511	1219	11127
1528	1345	11132
1512	1361	11137
1322	1192	11142
1376	1151	11146
1554	1344	11151
1553	1340	11156
1479	1368	11160
1365	1406	11165
1322	1265	11170
1380	1171	11174
1620	1409	11180
1642	1545	11185
1484	1241	11189
1403	1166	11194
1529	1260	11198
1598	1332	11203
1555	1422	11208
1470	1433	11212
1411	1589	11217
1540	1352	11223
1653	1216	11227
1686	1190	11232
1622	1314	11236
1600	1342	11241
1543	1311	11246
1594	1574	11250
1798	1519	11255
1799	1391	11260
1679	1319	11265
1656	1436	11270
1691	1405	11274
1666	1554	11279
1565	1370	11284
1484	1298	11288
1372	1413	11293
1354	1555	11298
1449	1343	11302
1489	1232	11308
1442	1376	11312
1428	1405	11317
1355	1354	11322
1409	1432	11326
1528	1313	11331
1465	1408	11336
1399	1537	11340
1403	1318	11345
1407	1272	11351
1325	1306	11355
1398	1405	11360
1492	1412	11364
1498	1408	11369
1524	1571	11374
1638	1699	11378
1676	1580	11383
1606	1424	11388
1372	1386	11393
1173	1408	11398
1208	1483	11402
1329	1418	11407
1350	1387	11412
1359	1381	11416
1299	1445	11421
1172	1465	11426
1231	1516	11430
1389	1525	11436
1457	1605	11440
1477	1622	11445
1457	1515	11450
1395	1484	11454
1521	1475	11459
1625	1515	11464
1588	1559	11468
1450	1507	11473
1252	1570	11479
1195	1541	11483
1174	1445	11488
1227	1431	11492
1405	1424	11497
1499	1538	11502
1525	1684	11506
1523	1555	11511
1518	1437	11516
1508	1405	11521
1502	1395	11526
1551	1420	11530
1641	1462	11535
1712	1468	11540
1639	1516	11544
1485	1529	11549
1318	1474	11554
1131	1557	11558
1130	1595	11564
1320	1561	11568
1493	1427	11573
1555	1409	11578
1570	1394	11582
1555	1491	11587
1516	1532	11592
1483	1406	11596
1469	1315	11601
1476	1311	11607
1531	1322	11611
1589	1347	11616
1508	1381	11620
1427	1411	11625
1439	1437	11630
1448	1479	11634
1270	1605	11639
1223	1555	11644
1364	1515	11649
1457	1519	11654
1458	1442	11658
1449	1498	11663
1504	1548	11668
1545	1480	11672
1559	1351	11677
1585	1339	11682
1608	1317	11686
1632	1379	11692
1732	1438	11696
1858	1374	11701
1860	1365	11706
1759	1381	11710
1680	1398	11715
1658	1432	11720
1590	1493	11724
1514	1531	11729
1527	1504	11735
1556	1476	11739
1548	1455	11744
1544	1388	11748
1553	1449	11753
1547	1499	11758
1442	1414	11762
1401	1374	11767
1560	1439	11772
1641	1347	11777
1690	1343	11782
1670	1329	11786
1558	1429	11791
1465	1466	11796
1453	1418	11800
1471	1408	11805
1455	1388	11810
1430	1468	11814
1326	1609	11820
1219	1512	11824
1284	1403	11829
1391	1396	11834
1423	1401	11838
1383	1496	11843
1404	1519	11848
1513	1527	11852
1575	1492	11857
1526	1520	11863
1479	1467	11867
1439	1406	11872
1357	1439	11876
1283	1456	11881
1303	1468	11886
1375	1538	11890
1405	1451	11895
1414	1418	11900
1403	1480	11905
1309	1494	11910
1273	1454	11914
1330	1491	11919
1394	1529	11924
1406	1482	11928
1378	1500	11933
1394	1502	11938
1470	1448	11942
1508	1425	11948
1503	1430	11952
1457	1479	11957
1398	1593	11962
1401	1553	11966
1435	1513	11971
1464	1476	11976
1477	1503	11980
1478	1566	11985
1480	1567	11991
1483	1498	11995
1489	1457	12000
1479	1449	12004
1448	1632	12009
1428	1602	12014
1420	1544	12018
1416	1545	12023
1470	1516	12028
1465	1530	12033
1449	1504	12038
1496	1448	12042
1530	1469	12047
1521	1471	12052
1491	1504	12056
1481	1469	12061
1477	1461	12066
1484	1476	12070
1465	1516	12076
1477	1538	12080
1508	1587	12085
1524	1555	12090
1527	1540	12094
1496	1577	12099
1443	1570	12104
1385	1635	12108
1374	1613	12113
1403	1629	12119
1457	1617	12123
1523	1527	12128
1492	1474	12132
1501	1517	12137
1563	1507	12142
1588	1442	12146
1586	1410	12151
1570	1420	12156
1554	1439	12161
1569	1475	12166
1600	1494	12170
1631	1494	12175
1659	1541	12180
1658	1571	12184
1645	1676	12189
1621	1562	12194
1625	1526	12198
1609	1561	12204
1499	1598	12208
1446	1663	12213
1457	1658	12218
1523	1599	12222
1613	1481	12227
1611	1629	12232
1595	1468	12236
1604	1368	12241
1599	1378	12246
1616	1465	12251
1639	1418	12256
1624	1396	12260
1605	1399	12265
1589	1424	12270
1576	1454	12274
1573	1484	12279
1566	1513	12284
1512	1551	12289
1404	1610	12294
1356	1639	12298
1324	1595	12303
1366	1673	12308
1451	1706	12312
1410	1702	12317
1160	1633	12322
1103	1498	12326
1340	1410	12332
1495	1450	12336
1538	1662	12341
1529	1610	12346
1537	1486	12350
1533	1405	12355
1512	1387	12360
1484	1404	12364
1468	1428	12369
1467	1457	12374
1465	1493	12379
1470	1518	12384
1472	1538	12388
1465	1561	12393
1453	1582	12398
1398	1617	12402
1315	1647	12407
1274	1679	12412
1304	1660	12417
1369	1752	12422
1358	1778	12426
1352	1736	12431
1423	1578	12436
1497	1490	12440
1515	1461	12445
1503	1504	12450
1487	1515	12454
1494	1493	12460
1501	1483	12464
1505	1468	12469
1506	1473	12474
1505	1488	12478
1503	1512	12483
1499	1535	12488
